0.2283737024221453
0.2240484429065744
0.2205882352941176
0.2162629757785467
0.2110726643598616
0.2058823529411765
0.1998269896193772
0.1963667820069204
0.1937716262975779
0.1885813148788927
0.1833910034602076
0.1747404844290658
0.171280276816609
0.1669550173010381
0.1643598615916955
0.1600346020761246
0.1531141868512111
0.1522491349480969
0.1479238754325259
0.1479238754325259
0.1479238754325259
0.143598615916955
0.143598615916955
0.1410034602076125
0.1366782006920415
0.1358131487889273
0.129757785467128
0.1271626297577855
0.1280276816608996
0.120242214532872
0.1185121107266436
0.1141868512110727
0.1107266435986159
0.1115916955017301
0.106401384083045
0.1046712802768166
0.1055363321799308
0.102076124567474
0.1003460207612457
0.09602076124567474
0.08823529411764706
0.09083044982698962
0.08910034602076125
0.08650519031141868
0.08217993079584775
0.07352941176470588
0.07006920415224914
0.06920415224913495
0.06660899653979238
0.06401384083044982
0.06314878892733564
0.05968858131487889
0.06055363321799308
0.05968858131487889
0.06055363321799308
0.06141868512110726
0.06228373702422145
0.06487889273356401
0.06747404844290658
0.06660899653979238
0.06401384083044982
0.06228373702422145
0.05795847750865052
0.06141868512110726
0.06055363321799308
0.05968858131487889
0.05622837370242215
0.05190311418685121
0.05449826989619377
0.05363321799307959
0.05536332179930796
0.05449826989619377
0.05363321799307959
0.05363321799307959
0.05363321799307959
0.05449826989619377
0.05449826989619377
0.05449826989619377
0.05276816608996539
0.05190311418685121
0.05190311418685121
0.05276816608996539
0.05449826989619377
0.05449826989619377
0.05363321799307959
0.05190311418685121
0.05536332179930796
0.05363321799307959
0.05882352941176471
0.05882352941176471
0.05622837370242215
0.05968858131487889
0.05363321799307959
0.05968858131487889
0.06141868512110726
0.06141868512110726
0.06401384083044982
0.05795847750865052
0.05882352941176471
0.05882352941176471
0.05968858131487889
0.06055363321799308
0.05882352941176471
0.05882352941176471
0.05536332179930796
0.05622837370242215
0.05449826989619377
0.05536332179930796
0.05622837370242215
0.05536332179930796
0.05622837370242215
0.05449826989619377
0.05795847750865052
0.05968858131487889
0.05882352941176471
0.05968858131487889
0.05882352941176471
0.06141868512110726
0.06401384083044982
0.06314878892733564
0.06141868512110726
0.05882352941176471
0.06055363321799308
0.06141868512110726
0.06228373702422145
0.06487889273356401
0.05968858131487889
0.06228373702422145
0.06141868512110726
0.05968858131487889
0.06401384083044982
0.06141868512110726
0.06228373702422145
0.06314878892733564
0.06141868512110726
0.06141868512110726
0.05882352941176471
0.05709342560553633
0.05709342560553633
0.05968858131487889
0.05795847750865052
0.05622837370242215
0.05536332179930796
0.05276816608996539
0.05622837370242215
0.05795847750865052
0.05968858131487889
0.06141868512110726
0.06141868512110726
0.06228373702422145
0.06401384083044982
0.06487889273356401
0.06228373702422145
0.06141868512110726
0.06055363321799308
0.06141868512110726
0.06141868512110726
0.05968858131487889
0.05709342560553633
0.05449826989619377
0.05622837370242215
0.05622837370242215
0.05795847750865052
0.05882352941176471
0.05795847750865052
0.05968858131487889
0.05968858131487889
0.06055363321799308
0.06401384083044982
0.06401384083044982
0.06314878892733564
0.06314878892733564
0.06228373702422145
0.06314878892733564
0.06314878892733564
0.05882352941176471
0.05709342560553633
0.05536332179930796
0.05709342560553633
0.05795847750865052
0.05795847750865052
0.05622837370242215
0.05536332179930796
0.05709342560553633
0.05795847750865052
0.05882352941176471
0.05622837370242215
0.05536332179930796
0.05709342560553633
0.05709342560553633
0.05795847750865052
0.05709342560553633
0.05536332179930796
0.05536332179930796
0.05795847750865052
0.05882352941176471
0.06055363321799308
0.06141868512110726
0.05709342560553633
0.05795847750865052
0.05795847750865052
0.05709342560553633
0.05968858131487889
0.05622837370242215
0.05622837370242215
0.05622837370242215
0.05622837370242215
0.05709342560553633
0.05709342560553633
0.05795847750865052
0.05882352941176471
0.06141868512110726
0.06141868512110726
0.06314878892733564
0.06401384083044982
0.06574394463667819
0.06833910034602077
0.07006920415224914
0.07093425605536333
0.07179930795847751
0.07179930795847751
0.07093425605536333
0.07179930795847751
0.0726643598615917
0.07612456747404844
0.07612456747404844
0.07612456747404844
0.07785467128027682
0.08217993079584775
0.08910034602076125
0.09342560553633218
0.09602076124567474
0.09515570934256055
0.09948096885813149
0.1046712802768166
0.1098615916955017
0.1107266435986159
0.1081314878892734
0.1089965397923875
0.1046712802768166
0.1115916955017301
0.1124567474048443
0.1141868512110727
0.1228373702422145
0.1193771626297578
0.1254325259515571
0.1271626297577855
0.1306228373702422
0.1384083044982699
0.1410034602076125
0.1453287197231834
0.1453287197231834
0.1496539792387543
0.1505190311418685
0.1539792387543253
0.157439446366782
0.157439446366782
0.1591695501730104
0.1600346020761246
0.1626297577854671
0.1643598615916955
0.1660899653979239
0.1660899653979239
0.1652249134948097
0.1660899653979239
0.1669550173010381
0.1686851211072664
0.1686851211072664
0.1678200692041522
0.1686851211072664
0.1721453287197232
0.1738754325259516
0.1764705882352941
0.1773356401384083
0.1782006920415225
0.1842560553633218
0.1859861591695502
0.1920415224913495
0.1955017301038062
0.1963667820069204
0.2015570934256055
0.2006920415224913
0.2041522491349481
0.2076124567474048
0.2076124567474048
0.2102076124567474
0.2093425605536332
0.2093425605536332
0.2110726643598616
0.21280276816609
0.2136678200692042
0.2162629757785467
0.2162629757785467
0.2171280276816609
0.2197231833910035
0.2179930795847751
0.2197231833910035
0.2197231833910035
0.2197231833910035
0.2188581314878893
0.2179930795847751
0.2188581314878893
0.2171280276816609
0.2171280276816609
0.2153979238754325
0.2153979238754325
0.2171280276816609
0.2162629757785467
0.2136678200692042
0.21280276816609
0.21280276816609
0.2162629757785467
0.2162629757785467
0.2162629757785467
0.2162629757785467
0.2145328719723184
0.2205882352941176
0.2214532871972318
0.2205882352941176
0.2205882352941176
0.2162629757785467
0.2162629757785467
0.2153979238754325
0.2153979238754325
0.2119377162629758
0.2093425605536332
0.2067474048442907
0.2050173010380623
0.2067474048442907
0.2032871972318339
0.1998269896193772
0.198961937716263
0.1980968858131488
0.1963667820069204
0.1963667820069204
0.1920415224913495
0.1877162629757785
0.1877162629757785
0.185121107266436
0.1859861591695502
0.1859861591695502
0.1833910034602076
0.1833910034602076
0.1799307958477509
0.1773356401384083
0.1764705882352941
0.1738754325259516
0.1730103806228374
0.171280276816609
0.1669550173010381
0.1643598615916955
0.1608996539792387
0.1617647058823529
0.1643598615916955
0.1643598615916955
0.1634948096885813
0.1617647058823529
0.1600346020761246
0.1591695501730104
0.1591695501730104
0.1557093425605536
0.1522491349480969
0.1487889273356401
0.1444636678200692
0.1418685121107267
0.1375432525951557
0.134083044982699
0.1323529411764706
0.1306228373702422
0.1306228373702422
0.1306228373702422
0.1280276816608996
0.1262975778546713
0.1237024221453287
0.1211072664359862
0.1211072664359862
0.1185121107266436
0.1133217993079585
0.1081314878892734
0.1029411764705882
0.1003460207612457
0.0986159169550173
0.09342560553633218
0.08996539792387544
0.08564013840830449
0.08391003460207612
0.08391003460207612
0.08131487889273356
0.078719723183391
0.07612456747404844
0.07525951557093426
0.07525951557093426
0.07179930795847751
0.06920415224913495
0.06833910034602077
0.06747404844290658
0.06833910034602077
0.06660899653979238
0.06401384083044982
0.06401384083044982
0.06314878892733564
0.06487889273356401
0.06574394463667819
0.06401384083044982
0.06314878892733564
0.05968858131487889
0.06055363321799308
0.06141868512110726
0.06055363321799308
0.06055363321799308
0.05622837370242215
0.05536332179930796
0.05622837370242215
0.05536332179930796
0.05709342560553633
0.05449826989619377
0.05449826989619377
0.05363321799307959
0.05276816608996539
0.05536332179930796
0.05276816608996539
0.05363321799307959
0.05363321799307959
0.05276816608996539
0.05622837370242215
0.05449826989619377
0.05709342560553633
0.05536332179930796
0.05449826989619377
0.05709342560553633
0.05449826989619377
0.05795847750865052
0.05622837370242215
0.05449826989619377
0.05622837370242215
0.05276816608996539
0.05363321799307959
0.05363321799307959
0.05363321799307959
0.05449826989619377
0.05536332179930796
0.05622837370242215
0.05536332179930796
0.05709342560553633
0.05795847750865052
0.06055363321799308
0.06141868512110726
0.06055363321799308
0.06141868512110726
0.06314878892733564
0.06487889273356401
0.06487889273356401
0.06314878892733564
0.06141868512110726
0.06314878892733564
0.06401384083044982
0.06401384083044982
0.06055363321799308
0.05795847750865052
0.05709342560553633
0.05795847750865052
0.06055363321799308
0.05882352941176471
0.05795847750865052
0.05622837370242215
0.05536332179930796
0.05536332179930796
0.05709342560553633
0.05622837370242215
0.05709342560553633
0.05709342560553633
0.05536332179930796
0.05968858131487889
0.05795847750865052
0.05795847750865052
0.05795847750865052
0.05536332179930796
0.05709342560553633
0.05882352941176471
0.05882352941176471
0.05709342560553633
0.05536332179930796
0.05190311418685121
0.05363321799307959
0.05449826989619377
0.05363321799307959
0.05709342560553633
0.05622837370242215
0.05795847750865052
0.05795847750865052
0.05795847750865052
0.06055363321799308
0.05968858131487889
0.06228373702422145
0.05882352941176471
0.05795847750865052
0.05795847750865052
0.05622837370242215
0.05622837370242215
0.05363321799307959
0.05276816608996539
0.05449826989619377
0.05709342560553633
0.05882352941176471
0.05968858131487889
0.06141868512110726
0.06228373702422145
0.06487889273356401
0.06401384083044982
0.06401384083044982
0.06401384083044982
0.06141868512110726
0.06228373702422145
0.05968858131487889
0.05622837370242215
0.05709342560553633
0.05536332179930796
0.05709342560553633
0.05882352941176471
0.05795847750865052
0.05968858131487889
0.05795847750865052
0.05882352941176471
0.06141868512110726
0.06228373702422145
0.06401384083044982
0.06228373702422145
0.06228373702422145
0.06228373702422145
0.06314878892733564
0.06401384083044982
0.06141868512110726
0.05882352941176471
0.05622837370242215
0.05363321799307959
0.05190311418685121
0.04930795847750865
0.04671280276816609
0.04411764705882353
0.04152249134948097
0.03979238754325259
0.03719723183391004
0.0328719723183391
0.03027681660899654
0.02854671280276817
0.0259515570934256
0.02249134948096886
0.01816608996539792
0.0129757785467128
0.009515570934256055
0.007785467128027681
0.006055363321799308
0.003460207612456748
0.00259515570934256
-0.0008650519031141869
-0.00259515570934256
-0.007785467128027681
-0.01211072664359862
-0.0129757785467128
-0.01557093425605536
-0.0198961937716263
-0.02681660899653979
-0.03114186851211072
-0.03546712802768166
-0.03633217993079585
-0.04065743944636678
-0.0458477508650519
-0.04844290657439446
-0.05709342560553633
-0.05190311418685121
-0.05190311418685121
-0.04844290657439446
-0.03719723183391004
-0.03892733564013841
-0.02768166089965398
-0.01903114186851211
-0.006055363321799308
0.01730103806228374
0.03373702422145329
0.0458477508650519
0.06574394463667819
0.08044982698961937
0.1038062283737024
0.1323529411764706
0.1470588235294118
0.1730103806228374
0.1859861591695502
0.2102076124567474
0.2370242214532872
0.2569204152249135
0.2785467128027682
0.2906574394463668
0.3131487889273357
0.3347750865051903
0.3581314878892733
0.3806228373702422
0.3944636678200692
0.4152249134948097
0.4377162629757785
0.4619377162629758
0.4835640138408305
0.5034602076124568
0.5259515570934256
0.5467128027681661
0.5683391003460208
0.5873702422145328
0.6072664359861591
0.6288927335640139
0.6505190311418685
0.6704152249134948
0.6911764705882353
0.71280276816609
0.7344290657439446
0.7551903114186851
0.7724913494809689
0.7932525951557093
0.8157439446366782
0.8382352941176471
0.8581314878892734
0.8762975778546713
0.9005190311418685
0.9186851211072664
0.9385813148788927
0.9558823529411765
0.9653979238754326
0.9809688581314879
0.9896193771626297
0.9965397923875432
1
0.9965397923875432
0.9887543252595156
0.9775086505190311
0.9653979238754326
0.9506920415224913
0.9377162629757786
0.9204152249134948
0.8996539792387543
0.879757785467128
0.8589965397923875
0.8408304498269896
0.8243944636678201
0.8044982698961938
0.78719723183391
0.763840830449827
0.7439446366782007
0.726643598615917
0.7058823529411765
0.6903114186851211
0.6678200692041523
0.6453287197231834
0.6271626297577855
0.6055363321799307
0.5873702422145328
0.5640138408304498
0.5406574394463668
0.5216262975778547
0.4991349480968858
0.4792387543252595
0.4558823529411765
0.4316608996539792
0.4134948096885813
0.3910034602076125
0.3711072664359862
0.3477508650519031
0.3252595155709342
0.3079584775086505
0.28719723183391
0.2681660899653979
0.2456747404844291
0.2249134948096886
0.2076124567474048
0.1885813148788927
0.1695501730103806
0.1505190311418685
0.1306228373702422
0.1124567474048443
0.092560553633218
0.07093425605536333
0.05190311418685121
0.03460207612456748
0.02076124567474048
0.007785467128027681
-0.005190311418685121
-0.01730103806228374
-0.02508650519031142
-0.03114186851211072
-0.0328719723183391
-0.03633217993079585
-0.03719723183391004
-0.03460207612456748
-0.03633217993079585
-0.03200692041522491
-0.0328719723183391
-0.03027681660899654
-0.02681660899653979
-0.02335640138408305
-0.01730103806228374
-0.01730103806228374
-0.0129757785467128
-0.01470588235294118
-0.01384083044982699
-0.009515570934256055
-0.008650519031141869
-0.003460207612456748
-0.003460207612456748
-0.00259515570934256
0.003460207612456748
0.007785467128027681
0.01124567474048443
0.01557093425605536
0.01816608996539792
0.02422145328719723
0.02768166089965398
0.03114186851211072
0.03460207612456748
0.03806228373702422
0.04411764705882353
0.0458477508650519
0.04930795847750865
0.05190311418685121
0.05276816608996539
0.05536332179930796
0.05709342560553633
0.05795847750865052
0.05968858131487889
0.05882352941176471
0.04930795847750865
0.05190311418685121
0.05190311418685121
0.05103806228373702
0.05968858131487889
0.04844290657439446
0.05103806228373702
0.05276816608996539
0.05190311418685121
0.05882352941176471
0.05795847750865052
0.05536332179930796
0.05363321799307959
0.05449826989619377
0.05103806228373702
0.05449826989619377
0.05536332179930796
0.05449826989619377
0.05536332179930796
0.05363321799307959
0.05622837370242215
0.05795847750865052
0.06141868512110726
0.06141868512110726
0.06228373702422145
0.06141868512110726
0.05882352941176471
0.06055363321799308
0.05795847750865052
0.05968858131487889
0.05882352941176471
0.05795847750865052
0.05882352941176471
0.05882352941176471
0.06055363321799308
0.05968858131487889
0.05882352941176471
0.05968858131487889
0.05968858131487889
0.06141868512110726
0.05968858131487889
0.05882352941176471
0.05795847750865052
0.05622837370242215
0.05795847750865052
0.05622837370242215
0.05536332179930796
0.05536332179930796
0.05363321799307959
0.05536332179930796
0.05536332179930796
0.05536332179930796
0.05449826989619377
0.05449826989619377
0.05363321799307959
0.05536332179930796
0.05536332179930796
0.05449826989619377
0.05795847750865052
0.05795847750865052
0.05882352941176471
0.05968858131487889
0.05968858131487889
0.06141868512110726
0.06055363321799308
0.06141868512110726
0.06055363321799308
0.06141868512110726
0.06228373702422145
0.06055363321799308
0.06141868512110726
0.05882352941176471
0.06141868512110726
0.06228373702422145
0.06141868512110726
0.06314878892733564
0.05968858131487889
0.05968858131487889
0.05795847750865052
0.05622837370242215
0.05795847750865052
0.05795847750865052
0.05795847750865052
0.05795847750865052
0.05622837370242215
0.05795847750865052
0.05882352941176471
0.06055363321799308
0.06314878892733564
0.06141868512110726
0.06141868512110726
0.05709342560553633
0.05709342560553633
0.05968858131487889
0.05882352941176471
0.06228373702422145
0.05968858131487889
0.05709342560553633
0.05882352941176471
0.05622837370242215
0.05882352941176471
0.05882352941176471
0.05622837370242215
0.05622837370242215
0.05449826989619377
0.05276816608996539
0.05363321799307959
0.05449826989619377
0.05622837370242215
0.06055363321799308
0.06141868512110726
0.06141868512110726
0.06401384083044982
0.06660899653979238
0.07093425605536333
0.07439446366782007
0.0726643598615917
0.0726643598615917
0.07525951557093426
0.07525951557093426
0.07785467128027682
0.078719723183391
0.07612456747404844
0.08044982698961937
0.08391003460207612
0.08650519031141868
0.08996539792387544
0.08910034602076125
0.09083044982698962
0.09429065743944637
0.09688581314878893
0.09948096885813149
0.09948096885813149
0.1003460207612457
0.1029411764705882
0.1038062283737024
0.106401384083045
0.1072664359861592
0.1081314878892734
0.1150519031141869
0.1167820069204152
0.1219723183391003
0.1280276816608996
0.129757785467128
0.1358131487889273
0.1392733564013841
0.1444636678200692
0.1487889273356401
0.1522491349480969
0.1548442906574395
0.1557093425605536
0.157439446366782
0.1591695501730104
0.1634948096885813
0.1652249134948097
0.1686851211072664
0.1704152249134948
0.1738754325259516
0.1790657439446367
0.180795847750865
0.1833910034602076
0.185121107266436
0.1885813148788927
0.1911764705882353
0.1946366782006921
0.1963667820069204
0.1955017301038062
0.198961937716263
0.2006920415224913
0.2050173010380623
0.2119377162629758
0.2145328719723184
0.2162629757785467
0.2197231833910035
0.222318339100346
0.2292387543252595
0.2370242214532872
0.2396193771626298
0.2430795847750865
0.2439446366782007
0.2465397923875433
0.2508650519031142
0.2551903114186851
0.2586505190311419
0.259515570934256
0.2612456747404844
0.2612456747404844
0.263840830449827
0.2664359861591695
0.2673010380622837
0.2690311418685121
0.2716262975778547
0.2733564013840831
0.2759515570934256
0.277681660899654
0.277681660899654
0.2837370242214533
0.2880622837370242
0.2932525951557093
0.3001730103806228
0.3001730103806228
0.3044982698961938
0.3096885813148789
0.3140138408304498
0.319204152249135
0.3209342560553633
0.3209342560553633
0.3209342560553633
0.32439446366782
0.32439446366782
0.328719723183391
0.3295847750865052
0.3295847750865052
0.3347750865051903
0.3313148788927336
0.3373702422145329
0.3391003460207612
0.3416955017301038
0.3503460207612457
0.3451557093425606
0.3512110726643599
0.3503460207612457
0.3503460207612457
0.3572664359861591
0.3581314878892733
0.3529411764705883
0.356401384083045
0.3581314878892733
0.3589965397923875
0.3728373702422145
0.3641868512110726
0.3667820069204152
0.370242214532872
0.3719723183391003
0.3858131487889274
0.3866782006920415
0.3858131487889274
0.3849480968858132
0.3858131487889274
0.3884083044982699
0.3901384083044983
0.3927335640138409
0.3910034602076125
0.3901384083044983
0.3901384083044983
0.3884083044982699
0.3918685121107267
0.3944636678200692
0.3953287197231834
0.3979238754325259
0.3979238754325259
0.3996539792387543
0.4057093425605536
0.4065743944636678
0.4117647058823529
0.4143598615916955
0.4152249134948097
0.4178200692041523
0.4169550173010381
0.4195501730103806
0.4204152249134948
0.4221453287197232
0.4238754325259516
0.4230103806228374
0.4230103806228374
0.4230103806228374
0.42560553633218
0.4299307958477508
0.4325259515570934
0.435121107266436
0.4342560553633218
0.4333910034602076
0.4342560553633218
0.4359861591695502
0.4394463667820069
0.4394463667820069
0.4377162629757785
0.4377162629757785
0.4359861591695502
0.4377162629757785
0.4394463667820069
0.4403114186851211
0.4411764705882353
0.4394463667820069
0.4420415224913495
0.4420415224913495
0.4472318339100346
0.4498269896193772
0.4515570934256055
0.4550173010380623
0.4524221453287197
0.4576124567474049
0.4593425605536332
0.46280276816609
0.4671280276816609
0.46280276816609
0.4619377162629758
0.4610726643598616
0.46280276816609
0.4653979238754326
0.4645328719723184
0.4636678200692042
0.4619377162629758
0.4636678200692042
0.4645328719723184
0.4645328719723184
0.4653979238754326
0.46280276816609
0.46280276816609
0.46280276816609
0.4619377162629758
0.46280276816609
0.4619377162629758
0.4602076124567474
0.4602076124567474
0.4593425605536332
0.46280276816609
0.46280276816609
0.46280276816609
0.4645328719723184
0.4602076124567474
0.4636678200692042
0.4645328719723184
0.4619377162629758
0.4645328719723184
0.4619377162629758
0.4593425605536332
0.4602076124567474
0.4558823529411765
0.4567474048442907
0.4558823529411765
0.4515570934256055
0.4515570934256055
0.4455017301038062
0.4463667820069204
0.444636678200692
0.4411764705882353
0.4403114186851211
0.435121107266436
0.4377162629757785
0.4368512110726643
0.4342560553633218
0.4325259515570934
0.430795847750865
0.4299307958477508
0.4299307958477508
0.4264705882352941
0.4230103806228374
0.421280276816609
0.4186851211072664
0.4195501730103806
0.4169550173010381
0.4152249134948097
0.4117647058823529
0.4108996539792388
0.4126297577854671
0.4117647058823529
0.4126297577854671
0.4091695501730104
0.4065743944636678
0.4065743944636678
0.4048442906574394
0.4031141868512111
0.4031141868512111
0.3987889273356401
0.3987889273356401
0.3961937716262976
0.3927335640138409
0.3918685121107267
0.3901384083044983
0.3875432525951557
0.384083044982699
0.3806228373702422
0.3762975778546713
0.3745674740484429
0.3711072664359862
0.3667820069204152
0.3641868512110726
0.3607266435986159
0.3581314878892733
0.3572664359861591
0.3538062283737024
0.3512110726643599
0.3503460207612457
0.3468858131487889
0.3451557093425606
0.342560553633218
0.3391003460207612
0.3391003460207612
0.3373702422145329
0.3356401384083045
0.3321799307958477
0.3295847750865052
0.3269896193771626
0.3278546712802768
0.3200692041522492
0.319204152249135
0.3183391003460208
0.3122837370242215
0.319204152249135
0.3070934256055363
0.3044982698961938
0.3019031141868512
0.2932525951557093
0.2958477508650519
0.2889273356401384
0.2854671280276816
0.2837370242214533
0.2759515570934256
0.2690311418685121
0.2621107266435986
0.2586505190311419
0.2586505190311419
0.2560553633217993
0.2508650519031142
0.2474048442906574
0.2430795847750865
0.2422145328719723
0.2422145328719723
0.2396193771626298
0.2387543252595156
0.2378892733564014
0.2326989619377163
0.2292387543252595
0.226643598615917
0.222318339100346
0.2205882352941176
0.2153979238754325
0.2076124567474048
0.2041522491349481
0.2006920415224913
0.1972318339100346
0.1929065743944637
0.1894463667820069
0.185121107266436
0.1825259515570934
0.1790657439446367
0.1730103806228374
0.1704152249134948
0.1652249134948097
0.1626297577854671
0.1617647058823529
0.1539792387543253
0.1531141868512111
0.1470588235294118
0.1453287197231834
0.1453287197231834
0.1418685121107267
0.1401384083044983
0.1375432525951557
0.134083044982699
0.129757785467128
0.1271626297577855
0.1228373702422145
0.1211072664359862
0.1193771626297578
0.1124567474048443
0.1072664359861592
0.102076124567474
0.09775086505190311
0.0986159169550173
0.09775086505190311
0.09429065743944637
0.08910034602076125
0.08564013840830449
0.08304498269896193
0.08131487889273356
0.08217993079584775
0.07785467128027682
0.07525951557093426
0.07179930795847751
0.06747404844290658
0.06660899653979238
0.06228373702422145
0.06055363321799308
0.06055363321799308
0.05709342560553633
0.05622837370242215
0.05449826989619377
0.05449826989619377
0.05363321799307959
0.05363321799307959
0.05536332179930796
0.05536332179930796
0.05795847750865052
0.05449826989619377
0.05363321799307959
0.05363321799307959
0.05363321799307959
0.05968858131487889
0.05968858131487889
0.06055363321799308
0.05882352941176471
0.05709342560553633
0.05968858131487889
0.05882352941176471
0.06055363321799308
0.06055363321799308
0.05795847750865052
0.05795847750865052
0.05622837370242215
0.05795847750865052
0.05882352941176471
0.05882352941176471
0.06055363321799308
0.05882352941176471
0.06055363321799308
0.05882352941176471
0.05709342560553633
0.05709342560553633
0.05536332179930796
0.05536332179930796
0.05363321799307959
0.05103806228373702
0.05363321799307959
0.05536332179930796
0.05536332179930796
0.05709342560553633
0.05622837370242215
0.05536332179930796
0.05709342560553633
0.05709342560553633
0.05882352941176471
0.05968858131487889
0.05795847750865052
0.05882352941176471
0.05622837370242215
0.05709342560553633
0.06055363321799308
0.06055363321799308
0.06228373702422145
0.05795847750865052
0.05622837370242215
0.05709342560553633
0.05536332179930796
0.05882352941176471
0.05622837370242215
0.05709342560553633
0.05709342560553633
0.05622837370242215
0.05882352941176471
0.05882352941176471
0.06228373702422145
0.06314878892733564
0.06401384083044982
0.06228373702422145
0.06141868512110726
0.06055363321799308
0.06055363321799308
0.05968858131487889
0.05795847750865052
0.05536332179930796
0.05363321799307959
0.05363321799307959
0.05276816608996539
0.05363321799307959
0.05103806228373702
0.04930795847750865
0.05017301038062284
0.05017301038062284
0.05449826989619377
0.05363321799307959
0.05276816608996539
0.05363321799307959
0.05276816608996539
0.05709342560553633
0.05882352941176471
0.05968858131487889
0.06141868512110726
0.06141868512110726
0.06314878892733564
0.06487889273356401
0.06574394463667819
0.06574394463667819
0.06660899653979238
0.06401384083044982
0.06487889273356401
0.06228373702422145
0.06055363321799308
0.06228373702422145
0.05882352941176471
0.05968858131487889
0.05795847750865052
0.05795847750865052
0.06055363321799308
0.05968858131487889
0.06055363321799308
0.06228373702422145
0.06228373702422145
0.06141868512110726
0.06055363321799308
0.05795847750865052
0.05795847750865052
0.05882352941176471
0.05622837370242215
0.05795847750865052
0.05622837370242215
0.05449826989619377
0.05709342560553633
0.05536332179930796
0.05795847750865052
0.06228373702422145
0.06228373702422145
0.06228373702422145
0.06055363321799308
0.05795847750865052
0.05882352941176471
0.05795847750865052
0.05968858131487889
0.06055363321799308
0.05968858131487889
0.06055363321799308
0.05536332179930796
0.05536332179930796
0.05622837370242215
0.05882352941176471
0.06228373702422145
0.06055363321799308
0.05968858131487889
0.05709342560553633
0.05795847750865052
0.05795847750865052
0.06055363321799308
0.06055363321799308
0.05968858131487889
0.06141868512110726
0.05795847750865052
0.05795847750865052
0.05795847750865052
0.05968858131487889
0.06228373702422145
0.05882352941176471
0.05622837370242215
0.05536332179930796
0.05622837370242215
0.06228373702422145
0.06055363321799308
0.05882352941176471
0.05709342560553633
0.05709342560553633
0.06228373702422145
0.06660899653979238
0.06833910034602077
0.06833910034602077
0.06920415224913495
0.06920415224913495
0.07179930795847751
0.07525951557093426
0.07698961937716263
0.078719723183391
0.08217993079584775
0.08391003460207612
0.08737024221453288
0.09083044982698962
0.09342560553633218
0.09948096885813149
0.1038062283737024
0.106401384083045
0.1081314878892734
0.1107266435986159
0.1124567474048443
0.1167820069204152
0.1185121107266436
0.1176470588235294
0.1193771626297578
0.1211072664359862
0.1262975778546713
0.129757785467128
0.1314878892733564
0.1323529411764706
0.1358131487889273
0.1401384083044983
0.143598615916955
0.1470588235294118
0.1479238754325259
0.1487889273356401
0.1513840830449827
0.1531141868512111
0.1548442906574395
0.1557093425605536
0.1565743944636678
0.157439446366782
0.1600346020761246
0.1626297577854671
0.1634948096885813
0.1652249134948097
0.1652249134948097
0.1660899653979239
0.1686851211072664
0.1704152249134948
0.1721453287197232
0.1747404844290658
0.1747404844290658
0.1756055363321799
0.1756055363321799
0.1773356401384083
0.180795847750865
0.1842560553633218
0.1868512110726644
0.1894463667820069
0.1903114186851211
0.1920415224913495
0.1972318339100346
0.1980968858131488
0.2006920415224913
0.2032871972318339
0.2050173010380623
0.2093425605536332
0.21280276816609
0.2110726643598616
0.2136678200692042
0.21280276816609
0.2136678200692042
0.2162629757785467
0.2153979238754325
0.2153979238754325
0.2153979238754325
0.2162629757785467
0.2153979238754325
0.2179930795847751
0.2171280276816609
0.2171280276816609
0.2179930795847751
0.2162629757785467
0.2188581314878893
0.2205882352941176
0.2188581314878893
0.2205882352941176
0.2188581314878893
0.2179930795847751
0.2197231833910035
0.2179930795847751
0.2197231833910035
0.2197231833910035
0.2179930795847751
0.2197231833910035
0.2171280276816609
0.2171280276816609
0.2171280276816609
0.2179930795847751
0.2188581314878893
0.2205882352941176
0.2205882352941176
0.2205882352941176
0.2179930795847751
0.2162629757785467
0.2171280276816609
0.2162629757785467
0.2162629757785467
0.2110726643598616
0.2076124567474048
0.2058823529411765
0.2032871972318339
0.2050173010380623
0.2032871972318339
0.2015570934256055
0.198961937716263
0.1955017301038062
0.1937716262975779
0.1929065743944637
0.1920415224913495
0.1911764705882353
0.1903114186851211
0.1877162629757785
0.185121107266436
0.185121107266436
0.1842560553633218
0.1825259515570934
0.180795847750865
0.1782006920415225
0.1756055363321799
0.1756055363321799
0.1721453287197232
0.1686851211072664
0.1678200692041522
0.1634948096885813
0.1643598615916955
0.1626297577854671
0.1600346020761246
0.1608996539792387
0.157439446366782
0.1591695501730104
0.1591695501730104
0.1565743944636678
0.1548442906574395
0.1513840830449827
0.1505190311418685
0.1487889273356401
0.1461937716262976
0.1418685121107267
0.1384083044982699
0.1358131487889273
0.1323529411764706
0.1288927335640138
0.1262975778546713
0.1245674740484429
0.1237024221453287
0.1211072664359862
0.1167820069204152
0.1141868512110727
0.1107266435986159
0.1081314878892734
0.1046712802768166
0.0986159169550173
0.09602076124567474
0.09169550173010381
0.08823529411764706
0.08737024221453288
0.08217993079584775
0.08044982698961937
0.07698961937716263
0.07352941176470588
0.06660899653979238
0.06487889273356401
0.06314878892733564
0.05882352941176471
0.06228373702422145
0.05363321799307959
0.05449826989619377
0.05363321799307959
0.05363321799307959
0.05622837370242215
0.05536332179930796
0.0458477508650519
0.04671280276816609
0.04930795847750865
0.04671280276816609
0.05536332179930796
0.04671280276816609
0.04930795847750865
0.05017301038062284
0.05190311418685121
0.05882352941176471
0.05882352941176471
0.06055363321799308
0.06141868512110726
0.06314878892733564
0.06141868512110726
0.06314878892733564
0.05968858131487889
0.06055363321799308
0.06055363321799308
0.05968858131487889
0.06314878892733564
0.06141868512110726
0.06401384083044982
0.06314878892733564
0.06228373702422145
0.06228373702422145
0.05968858131487889
0.06055363321799308
0.05968858131487889
0.05968858131487889
0.05968858131487889
0.05709342560553633
0.05449826989619377
0.05276816608996539
0.05190311418685121
0.05536332179930796
0.05795847750865052
0.05795847750865052
0.05882352941176471
0.05449826989619377
0.05363321799307959
0.05622837370242215
0.05795847750865052
0.06141868512110726
0.06055363321799308
0.05795847750865052
0.05622837370242215
0.05536332179930796
0.05536332179930796
0.05709342560553633
0.05709342560553633
0.05622837370242215
0.05795847750865052
0.05709342560553633
0.05882352941176471
0.05882352941176471
0.05795847750865052
0.05968858131487889
0.05968858131487889
0.06314878892733564
0.06141868512110726
0.06141868512110726
0.06141868512110726
0.05968858131487889
0.06141868512110726
0.05968858131487889
0.05882352941176471
0.05968858131487889
0.05882352941176471
0.05882352941176471
0.05795847750865052
0.05709342560553633
0.05795847750865052
0.05882352941176471
0.05882352941176471
0.05795847750865052
0.05709342560553633
0.05622837370242215
0.05795847750865052
0.05709342560553633
0.05622837370242215
0.05276816608996539
0.05190311418685121
0.05190311418685121
0.05276816608996539
0.05449826989619377
0.05536332179930796
0.05709342560553633
0.05536332179930796
0.05622837370242215
0.05622837370242215
0.05709342560553633
0.05795847750865052
0.05709342560553633
0.05622837370242215
0.05536332179930796
0.05363321799307959
0.05449826989619377
0.05536332179930796
0.05449826989619377
0.05795847750865052
0.05709342560553633
0.05882352941176471
0.06141868512110726
0.05795847750865052
0.06228373702422145
0.06141868512110726
0.05968858131487889
0.06141868512110726
0.05882352941176471
0.05709342560553633
0.05882352941176471
0.05622837370242215
0.05622837370242215
0.05709342560553633
0.05536332179930796
0.05622837370242215
0.05363321799307959
0.05363321799307959
0.05363321799307959
0.05363321799307959
0.05536332179930796
0.05363321799307959
0.05276816608996539
0.05276816608996539
0.05363321799307959
0.05536332179930796
0.05622837370242215
0.05882352941176471
0.05709342560553633
0.05622837370242215
0.05709342560553633
0.05622837370242215
0.05968858131487889
0.05882352941176471
0.05795847750865052
0.05536332179930796
0.05190311418685121
0.05017301038062284
0.04671280276816609
0.04411764705882353
0.03979238754325259
0.0328719723183391
0.02854671280276817
0.02249134948096886
0.01816608996539792
0.01643598615916955
0.01038062283737024
0.008650519031141869
0.006055363321799308
0.001730103806228374
0.00259515570934256
-0.001730103806228374
-0.0008650519031141869
-0.003460207612456748
-0.006055363321799308
-0.01211072664359862
-0.01643598615916955
-0.01903114186851211
-0.02076124567474048
-0.02422145328719723
-0.03027681660899654
-0.03373702422145329
-0.03806228373702422
-0.03979238754325259
-0.04325259515570934
-0.04844290657439446
-0.04930795847750865
-0.04757785467128028
-0.04325259515570934
-0.04152249134948097
-0.03979238754325259
-0.03546712802768166
-0.0259515570934256
-0.0129757785467128
-0.0008650519031141869
0.01124567474048443
0.02508650519031142
0.04498269896193772
0.06401384083044982
0.08391003460207612
0.1012110726643599
0.1185121107266436
0.1410034602076125
0.1643598615916955
0.1877162629757785
0.2050173010380623
0.226643598615917
0.2430795847750865
0.2655709342560554
0.2863321799307958
0.3105536332179931
0.3356401384083045
0.3529411764705883
0.3737024221453287
0.3858131487889274
0.4126297577854671
0.4359861591695502
0.458477508650519
0.4775086505190311
0.4939446366782007
0.5164359861591695
0.5302768166089965
0.5562283737024222
0.5726643598615917
0.5960207612456747
0.6245674740484429
0.6384083044982699
0.6608996539792388
0.6782006920415224
0.6998269896193772
0.7257785467128027
0.75
0.7664359861591695
0.7863321799307958
0.8105536332179931
0.8261245674740484
0.8529411764705882
0.8685121107266436
0.8875432525951558
0.9108996539792388
0.9290657439446367
0.9515570934256056
0.9636678200692042
0.972318339100346
0.9809688581314879
0.9870242214532872
0.9948096885813149
0.9965397923875432
0.9896193771626297
0.9792387543252595
0.967128027681661
0.9558823529411765
0.9437716262975778
0.9273356401384083
0.907439446366782
0.8884083044982699
0.8719723183391004
0.8538062283737025
0.8356401384083045
0.8157439446366782
0.7975778546712803
0.7802768166089965
0.7586505190311419
0.7396193771626297
0.7188581314878892
0.7015570934256056
0.6842560553633218
0.6608996539792388
0.6401384083044983
0.6150519031141869
0.596885813148789
0.5761245674740484
0.5527681660899654
0.532871972318339
0.5086505190311419
0.4878892733564014
0.4636678200692042
0.4394463667820069
0.4204152249134948
0.4013840830449827
0.3823529411764706
0.3589965397923875
0.3356401384083045
0.3166089965397924
0.2975778546712803
0.2794117647058824
0.259515570934256
0.2378892733564014
0.2205882352941176
0.198961937716263
0.1773356401384083
0.1565743944636678
0.1358131487889273
0.1185121107266436
0.09948096885813149
0.07785467128027682
0.05882352941176471
0.04152249134948097
0.02768166089965398
0.01557093425605536
0.001730103806228374
-0.01038062283737024
-0.0198961937716263
-0.0259515570934256
-0.03114186851211072
-0.03373702422145329
-0.03979238754325259
-0.04238754325259515
-0.04238754325259515
-0.04238754325259515
-0.03892733564013841
-0.03719723183391004
-0.0328719723183391
-0.02854671280276817
-0.02422145328719723
-0.02249134948096886
-0.01903114186851211
-0.01557093425605536
-0.01038062283737024
-0.006055363321799308
-0.006920415224913495
-0.004325259515570935
-0.003460207612456748
0.003460207612456748
0.004325259515570935
0.005190311418685121
0.007785467128027681
0.01038062283737024
0.01470588235294118
0.02076124567474048
0.02249134948096886
0.02768166089965398
0.0328719723183391
0.03546712802768166
0.04238754325259515
0.04498269896193772
0.04844290657439446
0.05190311418685121
0.05449826989619377
0.05622837370242215
0.05536332179930796
0.05882352941176471
0.05882352941176471
0.06055363321799308
0.06055363321799308
0.05882352941176471
0.06055363321799308
0.06055363321799308
0.06055363321799308
0.06055363321799308
0.05968858131487889
0.05968858131487889
0.06141868512110726
0.06141868512110726
0.06141868512110726
0.06141868512110726
0.06228373702422145
0.06747404844290658
0.06660899653979238
0.06574394463667819
0.06314878892733564
0.06141868512110726
0.06487889273356401
0.06660899653979238
0.06487889273356401
0.06228373702422145
0.06141868512110726
0.06141868512110726
0.06574394463667819
0.06314878892733564
0.06228373702422145
0.06228373702422145
0.05968858131487889
0.06487889273356401
0.06141868512110726
0.05968858131487889
0.05882352941176471
0.05536332179930796
0.05709342560553633
0.05622837370242215
0.05536332179930796
0.05536332179930796
0.05536332179930796
0.05449826989619377
0.05449826989619377
0.05449826989619377
0.05449826989619377
0.05709342560553633
0.05622837370242215
0.05622837370242215
0.05536332179930796
0.05709342560553633
0.05795847750865052
0.05709342560553633
0.05795847750865052
0.05622837370242215
0.05882352941176471
0.05882352941176471
0.05882352941176471
0.05968858131487889
0.05709342560553633
0.06055363321799308
0.05882352941176471
0.05968858131487889
0.05968858131487889
0.05795847750865052
0.06055363321799308
0.05968858131487889
0.05968858131487889
0.05709342560553633
0.05795847750865052
0.05882352941176471
0.05968858131487889
0.06055363321799308
0.05622837370242215
0.05622837370242215
0.05536332179930796
0.05449826989619377
0.05709342560553633
0.05622837370242215
0.05536332179930796
0.05622837370242215
0.05449826989619377
0.05276816608996539
0.05363321799307959
0.05449826989619377
0.05536332179930796
0.05709342560553633
0.05449826989619377
0.05449826989619377
0.05709342560553633
0.05795847750865052
0.06141868512110726
0.06141868512110726
0.06228373702422145
0.06141868512110726
0.06055363321799308
0.05968858131487889
0.06055363321799308
0.06141868512110726
0.06055363321799308
0.06141868512110726
0.05795847750865052
0.05968858131487889
0.05968858131487889
0.05795847750865052
0.06055363321799308
0.05968858131487889
0.05968858131487889
0.05968858131487889
0.05622837370242215
0.05709342560553633
0.05795847750865052
0.05882352941176471
0.05882352941176471
0.05968858131487889
0.06314878892733564
0.06747404844290658
0.07006920415224914
0.06660899653979238
0.06747404844290658
0.06920415224913495
0.07439446366782007
0.078719723183391
0.07525951557093426
0.07352941176470588
0.07352941176470588
0.07525951557093426
0.08044982698961937
0.08044982698961937
0.08217993079584775
0.08477508650519031
0.08650519031141868
0.08996539792387544
0.092560553633218
0.09515570934256055
0.09948096885813149
0.1029411764705882
0.1038062283737024
0.1081314878892734
0.1072664359861592
0.1115916955017301
0.1133217993079585
0.1133217993079585
0.115916955017301
0.1185121107266436
0.1237024221453287
0.1254325259515571
0.1306228373702422
0.134083044982699
0.1384083044982699
0.143598615916955
0.1444636678200692
0.1513840830449827
0.1548442906574395
0.1591695501730104
0.1634948096885813
0.1652249134948097
0.1678200692041522
0.1695501730103806
0.1738754325259516
0.1782006920415225
0.1799307958477509
0.180795847750865
0.1816608996539792
0.1842560553633218
0.1894463667820069
0.1929065743944637
0.1963667820069204
0.1963667820069204
0.1998269896193772
0.2032871972318339
0.2067474048442907
0.21280276816609
0.21280276816609
0.2179930795847751
0.2197231833910035
0.2240484429065744
0.2283737024221453
0.2275086505190311
0.2326989619377163
0.2335640138408304
0.2404844290657439
0.2448096885813149
0.2465397923875433
0.2482698961937716
0.2482698961937716
0.2534602076124567
0.2560553633217993
0.259515570934256
0.2612456747404844
0.2629757785467128
0.2655709342560554
0.2664359861591695
0.2690311418685121
0.2690311418685121
0.2724913494809689
0.2768166089965398
0.2785467128027682
0.2820069204152249
0.2820069204152249
0.2863321799307958
0.2923875432525951
0.2975778546712803
0.3027681660899654
0.3044982698961938
0.305363321799308
0.3079584775086505
0.3131487889273357
0.3174740484429066
0.3226643598615917
0.3226643598615917
0.3235294117647059
0.3252595155709342
0.3261245674740484
0.3321799307958477
0.3365051903114187
0.3391003460207612
0.342560553633218
0.3416955017301038
0.3442906574394464
0.3468858131487889
0.3503460207612457
0.3555363321799308
0.3555363321799308
0.3581314878892733
0.3581314878892733
0.3589965397923875
0.3615916955017301
0.3607266435986159
0.3641868512110726
0.3676470588235294
0.3693771626297578
0.3719723183391003
0.3711072664359862
0.3728373702422145
0.3745674740484429
0.3771626297577855
0.3788927335640138
0.3806228373702422
0.3814878892733564
0.3823529411764706
0.384083044982699
0.3849480968858132
0.3866782006920415
0.3875432525951557
0.3901384083044983
0.3927335640138409
0.393598615916955
0.3953287197231834
0.3961937716262976
0.3979238754325259
0.4013840830449827
0.407439446366782
0.4100346020761246
0.4117647058823529
0.4134948096885813
0.4134948096885813
0.4178200692041523
0.4186851211072664
0.4186851211072664
0.4186851211072664
0.4195501730103806
0.421280276816609
0.4230103806228374
0.42560553633218
0.4221453287197232
0.4221453287197232
0.4238754325259516
0.42560553633218
0.430795847750865
0.430795847750865
0.4290657439446367
0.4299307958477508
0.4299307958477508
0.4316608996539792
0.4342560553633218
0.4359861591695502
0.4385813148788927
0.4420415224913495
0.4429065743944637
0.4437716262975779
0.4437716262975779
0.444636678200692
0.4472318339100346
0.448961937716263
0.4480968858131488
0.4463667820069204
0.4463667820069204
0.4480968858131488
0.4506920415224914
0.4524221453287197
0.4532871972318339
0.4524221453287197
0.4532871972318339
0.4550173010380623
0.4558823529411765
0.4567474048442907
0.4558823529411765
0.4576124567474049
0.4567474048442907
0.4567474048442907
0.4558823529411765
0.4532871972318339
0.4558823529411765
0.4576124567474049
0.4619377162629758
0.4636678200692042
0.4645328719723184
0.4645328719723184
0.4653979238754326
0.4679930795847751
0.4688581314878893
0.4688581314878893
0.4688581314878893
0.4679930795847751
0.4688581314878893
0.4705882352941176
0.4697231833910034
0.4688581314878893
0.4679930795847751
0.4679930795847751
0.4697231833910034
0.4705882352941176
0.4697231833910034
0.4688581314878893
0.4662629757785467
0.4671280276816609
0.4662629757785467
0.4662629757785467
0.4653979238754326
0.4602076124567474
0.4602076124567474
0.4593425605536332
0.4567474048442907
0.4567474048442907
0.4541522491349481
0.4506920415224914
0.4515570934256055
0.4463667820069204
0.4420415224913495
0.4411764705882353
0.4385813148788927
0.4411764705882353
0.4377162629757785
0.4325259515570934
0.4290657439446367
0.4282006920415225
0.4282006920415225
0.4264705882352941
0.4238754325259516
0.421280276816609
0.4221453287197232
0.4221453287197232
0.421280276816609
0.4169550173010381
0.4126297577854671
0.4134948096885813
0.4143598615916955
0.4160899653979239
0.4143598615916955
0.4100346020761246
0.4100346020761246
0.4065743944636678
0.407439446366782
0.4065743944636678
0.4039792387543253
0.4022491349480969
0.3987889273356401
0.3987889273356401
0.3944636678200692
0.3927335640138409
0.3884083044982699
0.384083044982699
0.3849480968858132
0.3814878892733564
0.379757785467128
0.3762975778546713
0.3728373702422145
0.3719723183391003
0.3711072664359862
0.3685121107266436
0.3650519031141868
0.3633217993079585
0.3615916955017301
0.3598615916955017
0.3572664359861591
0.3546712802768166
0.3538062283737024
0.3529411764705883
0.3512110726643599
0.3468858131487889
0.3451557093425606
0.3434256055363322
0.342560553633218
0.3399653979238754
0.3339100346020761
0.3321799307958477
0.3278546712802768
0.3261245674740484
0.3252595155709342
0.3261245674740484
0.3226643598615917
0.319204152249135
0.314878892733564
0.3079584775086505
0.3105536332179931
0.305363321799308
0.301038062283737
0.2958477508650519
0.2837370242214533
0.2820069204152249
0.2759515570934256
0.2707612456747405
0.2681660899653979
0.263840830449827
0.2629757785467128
0.2612456747404844
0.2543252595155709
0.2508650519031142
0.2482698961937716
0.2482698961937716
0.25
0.2378892733564014
0.236159169550173
0.2292387543252595
0.226643598615917
0.2344290657439446
0.2205882352941176
0.2214532871972318
0.2162629757785467
0.21280276816609
0.2188581314878893
0.2110726643598616
0.2058823529411765
0.2015570934256055
0.1972318339100346
0.1963667820069204
0.1920415224913495
0.1859861591695502
0.1790657439446367
0.1721453287197232
0.1686851211072664
0.1669550173010381
0.1652249134948097
0.1626297577854671
0.1565743944636678
0.1548442906574395
0.1513840830449827
0.1505190311418685
0.1487889273356401
0.143598615916955
0.1427335640138408
0.1384083044982699
0.1375432525951557
0.1332179930795848
0.1280276816608996
0.1245674740484429
0.1219723183391003
0.120242214532872
0.1167820069204152
0.1133217993079585
0.1072664359861592
0.1038062283737024
0.09948096885813149
0.09602076124567474
0.09429065743944637
0.08910034602076125
0.08564013840830449
0.08044982698961937
0.07698961937716263
0.07698961937716263
0.07439446366782007
0.0726643598615917
0.06747404844290658
0.06228373702422145
0.06141868512110726
0.06055363321799308
0.05968858131487889
0.05709342560553633
0.05449826989619377
0.05449826989619377
0.05536332179930796
0.05622837370242215
0.05622837370242215
0.05709342560553633
0.05709342560553633
0.05882352941176471
0.06141868512110726
0.06228373702422145
0.06314878892733564
0.06055363321799308
0.05882352941176471
0.05968858131487889
0.05968858131487889
0.06055363321799308
0.05882352941176471
0.05795847750865052
0.05449826989619377
0.05709342560553633
0.05709342560553633
0.05795847750865052
0.06141868512110726
0.05795847750865052
0.06141868512110726
0.05795847750865052
0.05622837370242215
0.05968858131487889
0.05882352941176471
0.06141868512110726
0.06055363321799308
0.05536332179930796
0.05449826989619377
0.05449826989619377
0.05709342560553633
0.05882352941176471
0.05795847750865052
0.05449826989619377
0.05190311418685121
0.05536332179930796
0.05622837370242215
0.05968858131487889
0.06055363321799308
0.05622837370242215
0.05795847750865052
0.05968858131487889
0.06141868512110726
0.06487889273356401
0.06401384083044982
0.06228373702422145
0.06228373702422145
0.06055363321799308
0.06228373702422145
0.06228373702422145
0.06314878892733564
0.06228373702422145
0.05968858131487889
0.05882352941176471
0.05882352941176471
0.05968858131487889
0.06055363321799308
0.05795847750865052
0.05795847750865052
0.05795847750865052
0.05968858131487889
0.06228373702422145
0.05968858131487889
0.05795847750865052
0.05795847750865052
0.05795847750865052
0.05968858131487889
0.05882352941176471
0.05709342560553633
0.05709342560553633
0.05795847750865052
0.05709342560553633
0.05709342560553633
0.05449826989619377
0.05449826989619377
0.05622837370242215
0.05622837370242215
0.05536332179930796
0.05363321799307959
0.05622837370242215
0.05795847750865052
0.05882352941176471
0.05795847750865052
0.05709342560553633
0.05968858131487889
0.06141868512110726
0.06055363321799308
0.05882352941176471
0.05622837370242215
0.05709342560553633
0.05622837370242215
0.05709342560553633
0.05622837370242215
0.05536332179930796
0.05795847750865052
0.05622837370242215
0.05882352941176471
0.05968858131487889
0.06141868512110726
0.06228373702422145
0.06141868512110726
0.06314878892733564
0.06141868512110726
0.06401384083044982
0.06314878892733564
0.06314878892733564
0.06487889273356401
0.06228373702422145
0.06401384083044982
0.06401384083044982
0.06314878892733564
0.06660899653979238
0.06401384083044982
0.06314878892733564
0.06141868512110726
0.06141868512110726
0.06401384083044982
0.06574394463667819
0.06574394463667819
0.06314878892733564
0.06141868512110726
0.05968858131487889
0.06055363321799308
0.06228373702422145
0.06141868512110726
0.05968858131487889
0.05709342560553633
0.05449826989619377
0.05449826989619377
0.05622837370242215
0.05882352941176471
0.05882352941176471
0.05882352941176471
0.05795847750865052
0.05968858131487889
0.06228373702422145
0.06055363321799308
0.06055363321799308
0.05882352941176471
0.05882352941176471
0.05968858131487889
0.05882352941176471
0.05449826989619377
0.05363321799307959
0.05363321799307959
0.05709342560553633
0.05795847750865052
0.05622837370242215
0.05709342560553633
0.05449826989619377
0.05536332179930796
0.05622837370242215
0.05449826989619377
0.06055363321799308
0.06055363321799308
0.06141868512110726
0.06228373702422145
0.05709342560553633
0.06228373702422145
0.06487889273356401
0.06747404844290658
0.06920415224913495
0.06574394463667819
0.06660899653979238
0.06660899653979238
0.06660899653979238
0.06747404844290658
0.07006920415224914
0.07352941176470588
0.07525951557093426
0.078719723183391
0.07958477508650519
0.08477508650519031
0.08996539792387544
0.09342560553633218
0.09602076124567474
0.09688581314878893
0.1012110726643599
0.1038062283737024
0.1072664359861592
0.1089965397923875
0.1089965397923875
0.1107266435986159
0.1133217993079585
0.1176470588235294
0.1211072664359862
0.1237024221453287
0.1245674740484429
0.1271626297577855
0.1332179930795848
0.1358131487889273
0.1410034602076125
0.1427335640138408
0.1427335640138408
0.1487889273356401
0.1496539792387543
0.1522491349480969
0.1548442906574395
0.1557093425605536
0.157439446366782
0.1565743944636678
0.1583044982698962
0.1600346020761246
0.1608996539792387
0.1643598615916955
0.1643598615916955
0.1634948096885813
0.1678200692041522
0.1695501730103806
0.1738754325259516
0.1747404844290658
0.1730103806228374
0.1747404844290658
0.1764705882352941
0.180795847750865
0.1833910034602076
0.1833910034602076
0.1842560553633218
0.185121107266436
0.1877162629757785
0.1903114186851211
0.1903114186851211
0.1920415224913495
0.1929065743944637
0.1963667820069204
0.1980968858131488
0.1998269896193772
0.2024221453287197
0.2032871972318339
0.2093425605536332
0.2093425605536332
0.2102076124567474
0.2136678200692042
0.2145328719723184
0.2197231833910035
0.2197231833910035
0.2179930795847751
0.2179930795847751
0.2162629757785467
0.2197231833910035
0.222318339100346
0.2214532871972318
0.2214532871972318
0.2179930795847751
0.2179930795847751
0.2171280276816609
0.2205882352941176
0.2188581314878893
0.2171280276816609
0.2188581314878893
0.2179930795847751
0.222318339100346
0.2205882352941176
0.2188581314878893
0.2197231833910035
0.2197231833910035
0.2214532871972318
0.2214532871972318
0.2188581314878893
0.2179930795847751
0.2162629757785467
0.2171280276816609
0.2162629757785467
0.2162629757785467
0.2162629757785467
0.2145328719723184
0.21280276816609
0.21280276816609
0.2102076124567474
0.2119377162629758
0.2102076124567474
0.208477508650519
0.2102076124567474
0.2067474048442907
0.2050173010380623
0.2032871972318339
0.1998269896193772
0.2006920415224913
0.198961937716263
0.1946366782006921
0.1911764705882353
0.1859861591695502
0.1859861591695502
0.1868512110726644
0.1842560553633218
0.1833910034602076
0.1799307958477509
0.180795847750865
0.1790657439446367
0.1799307958477509
0.1790657439446367
0.1773356401384083
0.1790657439446367
0.1756055363321799
0.1764705882352941
0.171280276816609
0.1704152249134948
0.1704152249134948
0.1669550173010381
0.1669550173010381
0.1608996539792387
0.1608996539792387
0.1565743944636678
0.1522491349480969
0.1505190311418685
0.1461937716262976
0.1470588235294118
0.1453287197231834
0.143598615916955
0.1392733564013841
0.1366782006920415
0.1358131487889273
0.1384083044982699
0.1384083044982699
0.134083044982699
0.1306228373702422
0.1228373702422145
0.1219723183391003
0.1219723183391003
0.1185121107266436
0.1141868512110727
0.1081314878892734
0.1029411764705882
0.1012110726643599
0.1012110726643599
0.09515570934256055
0.09429065743944637
0.092560553633218
0.08823529411764706
0.08910034602076125
0.08131487889273356
0.07785467128027682
0.07612456747404844
0.0726643598615917
0.07352941176470588
0.06920415224913495
0.06747404844290658
0.06401384083044982
0.06401384083044982
0.06314878892733564
0.06141868512110726
0.06228373702422145
0.05968858131487889
0.05882352941176471
0.05709342560553633
0.05536332179930796
0.05622837370242215
0.05622837370242215
0.05536332179930796
0.05536332179930796
0.05190311418685121
0.05363321799307959
0.05622837370242215
0.05622837370242215
0.05968858131487889
0.05795847750865052
0.05882352941176471
0.05795847750865052
0.05882352941176471
0.06055363321799308
0.06055363321799308
0.06228373702422145
0.05709342560553633
0.05795847750865052
0.05709342560553633
0.05536332179930796
0.05709342560553633
0.05449826989619377
0.05449826989619377
0.05449826989619377
0.05536332179930796
0.05536332179930796
0.05536332179930796
0.05622837370242215
0.05622837370242215
0.05709342560553633
0.05795847750865052
0.05795847750865052
0.05968858131487889
0.05882352941176471
0.05882352941176471
0.05882352941176471
0.05968858131487889
0.06055363321799308
0.05882352941176471
0.06055363321799308
0.05968858131487889
0.06055363321799308
0.06228373702422145
0.05968858131487889
0.05795847750865052
0.05968858131487889
0.05882352941176471
0.06055363321799308
0.06141868512110726
0.05622837370242215
0.05882352941176471
0.05795847750865052
0.05968858131487889
0.06055363321799308
0.05968858131487889
0.06055363321799308
0.06055363321799308
0.06141868512110726
0.06141868512110726
0.06055363321799308
0.05968858131487889
0.05968858131487889
0.05795847750865052
0.05882352941176471
0.05882352941176471
0.06055363321799308
0.06228373702422145
0.06055363321799308
0.06141868512110726
0.05882352941176471
0.06055363321799308
0.06141868512110726
0.05882352941176471
0.06141868512110726
0.05882352941176471
0.05795847750865052
0.05795847750865052
0.05709342560553633
0.05882352941176471
0.05882352941176471
0.05795847750865052
0.05795847750865052
0.05709342560553633
0.06055363321799308
0.05882352941176471
0.05795847750865052
0.05622837370242215
0.05363321799307959
0.05795847750865052
0.05622837370242215
0.05795847750865052
0.05709342560553633
0.05363321799307959
0.05709342560553633
0.05449826989619377
0.05882352941176471
0.06055363321799308
0.05795847750865052
0.06055363321799308
0.05536332179930796
0.05795847750865052
0.05968858131487889
0.06141868512110726
0.06314878892733564
0.05968858131487889
0.06055363321799308
0.06055363321799308
0.06314878892733564
0.06574394463667819
0.06401384083044982
0.06401384083044982
0.06401384083044982
0.06487889273356401
0.06487889273356401
0.06314878892733564
0.06141868512110726
0.05968858131487889
0.06055363321799308
0.05882352941176471
0.05882352941176471
0.05882352941176471
0.05709342560553633
0.05968858131487889
0.05882352941176471
0.06055363321799308
0.06314878892733564
0.06314878892733564
0.06401384083044982
0.06401384083044982
0.06228373702422145
0.06228373702422145
0.06141868512110726
0.05709342560553633
0.05622837370242215
0.05363321799307959
0.05017301038062284
0.04930795847750865
0.04498269896193772
0.03979238754325259
0.03633217993079585
0.0328719723183391
0.02768166089965398
0.0259515570934256
0.01903114186851211
0.0129757785467128
0.01038062283737024
0.005190311418685121
0.003460207612456748
0.0008650519031141869
-0.001730103806228374
-0.001730103806228374
-0.003460207612456748
-0.006055363321799308
-0.009515570934256055
-0.0129757785467128
-0.01643598615916955
-0.01903114186851211
-0.02162629757785467
-0.02508650519031142
-0.02854671280276817
-0.0328719723183391
-0.03719723183391004
-0.03806228373702422
-0.03979238754325259
-0.04065743944636678
-0.04325259515570934
-0.04757785467128028
-0.04671280276816609
-0.04411764705882353
-0.04325259515570934
-0.03460207612456748
-0.03027681660899654
-0.01903114186851211
-0.001730103806228374
0.006055363321799308
0.02508650519031142
0.03979238754325259
0.05709342560553633
0.08131487889273356
0.0986159169550173
0.1193771626297578
0.1410034602076125
0.1600346020761246
0.180795847750865
0.2006920415224913
0.2197231833910035
0.2430795847750865
0.2647058823529412
0.2837370242214533
0.301038062283737
0.3217993079584775
0.3416955017301038
0.3650519031141868
0.384083044982699
0.4031141868512111
0.42560553633218
0.4463667820069204
0.4714532871972318
0.4878892733564014
0.509515570934256
0.5285467128027682
0.5536332179930796
0.5778546712802768
0.5951557093425606
0.615916955017301
0.6314878892733564
0.657439446366782
0.6773356401384083
0.6998269896193772
0.7205882352941176
0.7352941176470589
0.7577854671280276
0.777681660899654
0.8027681660899654
0.8235294117647058
0.8442906574394463
0.8598615916955017
0.8814878892733564
0.9039792387543253
0.9247404844290658
0.9480968858131488
0.9584775086505191
0.9697231833910035
0.9775086505190311
0.9835640138408305
0.9922145328719724
0.9939446366782007
0.9922145328719724
0.9835640138408305
0.972318339100346
0.9593425605536332
0.9480968858131488
0.9333910034602076
0.9160899653979239
0.9013840830449827
0.8814878892733564
0.8650519031141869
0.8434256055363322
0.8226643598615917
0.8062283737024222
0.7854671280276817
0.7673010380622838
0.7448096885813149
0.722318339100346
0.7050173010380623
0.6851211072664359
0.6634948096885813
0.6427335640138409
0.620242214532872
0.6012110726643599
0.5813148788927336
0.5570934256055363
0.5354671280276817
0.513840830449827
0.4930795847750865
0.472318339100346
0.4472318339100346
0.4282006920415225
0.407439446366782
0.3875432525951557
0.3693771626297578
0.3451557093425606
0.3278546712802768
0.3096885813148789
0.2897923875432526
0.2707612456747405
0.25
0.2309688581314879
0.2110726643598616
0.1903114186851211
0.1686851211072664
0.1487889273356401
0.1314878892733564
0.1115916955017301
0.08910034602076125
0.06833910034602077
0.04930795847750865
0.03719723183391004
0.02335640138408305
0.006055363321799308
-0.006920415224913495
-0.01816608996539792
-0.02422145328719723
-0.02768166089965398
-0.03373702422145329
-0.03719723183391004
-0.03806228373702422
-0.03979238754325259
-0.03719723183391004
-0.03633217993079585
-0.03460207612456748
-0.03114186851211072
-0.03027681660899654
-0.0259515570934256
-0.02249134948096886
-0.02249134948096886
-0.01903114186851211
-0.01730103806228374
-0.01643598615916955
-0.01124567474048443
-0.0129757785467128
-0.01038062283737024
-0.006920415224913495
-0.006920415224913495
-0.0008650519031141869
0.00259515570934256
0.006920415224913495
0.01211072664359862
0.01384083044982699
0.01730103806228374
0.02162629757785467
0.02854671280276817
0.03546712802768166
0.03633217993079585
0.03892733564013841
0.04065743944636678
0.04498269896193772
0.04930795847750865
0.04844290657439446
0.05103806228373702
0.05276816608996539
0.05622837370242215
0.05622837370242215
0.05363321799307959
0.05363321799307959
0.05363321799307959
0.05622837370242215
0.05795847750865052
0.05622837370242215
0.05536332179930796
0.05449826989619377
0.05536332179930796
0.05536332179930796
0.05622837370242215
0.05536332179930796
0.05536332179930796
0.05622837370242215
0.05536332179930796
0.05536332179930796
0.05536332179930796
0.05622837370242215
0.05968858131487889
0.06055363321799308
0.05882352941176471
0.05882352941176471
0.05709342560553633
0.05882352941176471
0.06141868512110726
0.05882352941176471
0.05882352941176471
0.05882352941176471
0.05709342560553633
0.06141868512110726
0.05968858131487889
0.05882352941176471
0.05882352941176471
0.05709342560553633
0.06055363321799308
0.05882352941176471
0.05709342560553633
0.05449826989619377
0.05276816608996539
0.05536332179930796
0.05536332179930796
0.05449826989619377
0.05536332179930796
0.05363321799307959
0.05622837370242215
0.05795847750865052
0.05709342560553633
0.05882352941176471
0.05622837370242215
0.05882352941176471
0.05795847750865052
0.05795847750865052
0.05795847750865052
0.05449826989619377
0.05709342560553633
0.05622837370242215
0.05622837370242215
0.05536332179930796
0.05190311418685121
0.05363321799307959
0.05449826989619377
0.05536332179930796
0.05709342560553633
0.05449826989619377
0.05622837370242215
0.05709342560553633
0.05882352941176471
0.06055363321799308
0.05968858131487889
0.06228373702422145
0.06228373702422145
0.06228373702422145
0.06055363321799308
0.05882352941176471
0.05795847750865052
0.05968858131487889
0.06228373702422145
0.06141868512110726
0.05795847750865052
0.05709342560553633
0.05622837370242215
0.05795847750865052
0.05882352941176471
0.05968858131487889
0.05968858131487889
0.05536332179930796
0.05795847750865052
0.05536332179930796
0.05622837370242215
0.05709342560553633
0.05622837370242215
0.05882352941176471
0.05795847750865052
0.05622837370242215
0.05363321799307959
0.05622837370242215
0.05795847750865052
0.05882352941176471
0.06055363321799308
0.05536332179930796
0.05536332179930796
0.05795847750865052
0.05709342560553633
0.06055363321799308
0.05968858131487889
0.05795847750865052
0.06055363321799308
0.05795847750865052
0.05968858131487889
0.06141868512110726
0.06228373702422145
0.06574394463667819
0.06487889273356401
0.06660899653979238
0.06660899653979238
0.06574394463667819
0.07093425605536333
0.07179930795847751
0.0726643598615917
0.07785467128027682
0.07698961937716263
0.08044982698961937
0.08391003460207612
0.08304498269896193
0.08910034602076125
0.08996539792387544
0.08996539792387544
0.092560553633218
0.09083044982698962
0.09429065743944637
0.09688581314878893
0.09602076124567474
0.09688581314878893
0.09515570934256055
0.09948096885813149
0.1038062283737024
0.106401384083045
0.1081314878892734
0.1072664359861592
0.1107266435986159
0.115916955017301
0.120242214532872
0.1228373702422145
0.1237024221453287
0.1271626297577855
0.129757785467128
0.1358131487889273
0.1384083044982699
0.1410034602076125
0.1461937716262976
0.1453287197231834
0.1505190311418685
0.1531141868512111
0.1531141868512111
0.1565743944636678
0.1565743944636678
0.1591695501730104
0.1660899653979239
0.1686851211072664
0.1730103806228374
0.1730103806228374
0.1756055363321799
0.1799307958477509
0.1833910034602076
0.1877162629757785
0.1877162629757785
0.1903114186851211
0.1929065743944637
0.1963667820069204
0.1980968858131488
0.2015570934256055
0.2024221453287197
0.208477508650519
0.2162629757785467
0.2179930795847751
0.2153979238754325
0.2171280276816609
0.2214532871972318
0.2283737024221453
0.2378892733564014
0.2335640138408304
0.236159169550173
0.2404844290657439
0.2448096885813149
0.2543252595155709
0.2577854671280277
0.2577854671280277
0.2612456747404844
0.263840830449827
0.263840830449827
0.2673010380622837
0.2681660899653979
0.2698961937716263
0.2733564013840831
0.2733564013840831
0.2794117647058824
0.2820069204152249
0.2854671280276816
0.2906574394463668
0.2906574394463668
0.2932525951557093
0.2975778546712803
0.3001730103806228
0.3027681660899654
0.3044982698961938
0.305363321799308
0.3096885813148789
0.314878892733564
0.3166089965397924
0.3183391003460208
0.3217993079584775
0.3261245674740484
0.3330449826989619
0.3373702422145329
0.3391003460207612
0.342560553633218
0.3442906574394464
0.3494809688581315
0.3503460207612457
0.3520761245674741
0.3546712802768166
0.356401384083045
0.3598615916955017
0.3589965397923875
0.3581314878892733
0.3581314878892733
0.3598615916955017
0.3650519031141868
0.365916955017301
0.3685121107266436
0.3693771626297578
0.3667820069204152
0.3737024221453287
0.3745674740484429
0.3780276816608997
0.3823529411764706
0.379757785467128
0.3832179930795848
0.3823529411764706
0.3832179930795848
0.3849480968858132
0.3866782006920415
0.3901384083044983
0.3892733564013841
0.3918685121107267
0.393598615916955
0.3927335640138409
0.3961937716262976
0.3961937716262976
0.3987889273356401
0.4022491349480969
0.4048442906574394
0.407439446366782
0.4065743944636678
0.4065743944636678
0.407439446366782
0.4126297577854671
0.4169550173010381
0.4169550173010381
0.4169550173010381
0.4152249134948097
0.4160899653979239
0.4186851211072664
0.4186851211072664
0.4195501730103806
0.4195501730103806
0.421280276816609
0.4247404844290658
0.4264705882352941
0.4282006920415225
0.4282006920415225
0.430795847750865
0.4333910034602076
0.4342560553633218
0.4368512110726643
0.4377162629757785
0.4411764705882353
0.4420415224913495
0.4403114186851211
0.4411764705882353
0.4394463667820069
0.4411764705882353
0.4429065743944637
0.4420415224913495
0.4429065743944637
0.4420415224913495
0.4429065743944637
0.4455017301038062
0.4463667820069204
0.448961937716263
0.4532871972318339
0.4550173010380623
0.4593425605536332
0.4610726643598616
0.4619377162629758
0.4645328719723184
0.4645328719723184
0.4636678200692042
0.46280276816609
0.4645328719723184
0.46280276816609
0.4645328719723184
0.46280276816609
0.4610726643598616
0.4619377162629758
0.4610726643598616
0.4653979238754326
0.4636678200692042
0.4662629757785467
0.4653979238754326
0.4653979238754326
0.4679930795847751
0.4653979238754326
0.4679930795847751
0.4653979238754326
0.4653979238754326
0.4662629757785467
0.4645328719723184
0.4671280276816609
0.4653979238754326
0.4653979238754326
0.4653979238754326
0.4662629757785467
0.4679930795847751
0.4679930795847751
0.4671280276816609
0.4645328719723184
0.4636678200692042
0.4636678200692042
0.46280276816609
0.4593425605536332
0.4567474048442907
0.4524221453287197
0.4506920415224914
0.4515570934256055
0.448961937716263
0.448961937716263
0.4472318339100346
0.4429065743944637
0.4420415224913495
0.4385813148788927
0.4385813148788927
0.4377162629757785
0.435121107266436
0.4333910034602076
0.421280276816609
0.4204152249134948
0.421280276816609
0.421280276816609
0.4290657439446367
0.4204152249134948
0.4178200692041523
0.4169550173010381
0.4160899653979239
0.4186851211072664
0.4169550173010381
0.4186851211072664
0.4152249134948097
0.4134948096885813
0.4100346020761246
0.4048442906574394
0.407439446366782
0.4083044982698962
0.4065743944636678
0.4057093425605536
0.4031141868512111
0.3996539792387543
0.3987889273356401
0.3961937716262976
0.393598615916955
0.3918685121107267
0.3901384083044983
0.3849480968858132
0.3823529411764706
0.3788927335640138
0.3771626297577855
0.3754325259515571
0.3711072664359862
0.3693771626297578
0.3667820069204152
0.365916955017301
0.3633217993079585
0.3607266435986159
0.3589965397923875
0.356401384083045
0.3555363321799308
0.3538062283737024
0.3494809688581315
0.3477508650519031
0.3442906574394464
0.3408304498269896
0.3416955017301038
0.3373702422145329
0.3365051903114187
0.3339100346020761
0.3295847750865052
0.3269896193771626
0.3226643598615917
0.3217993079584775
0.3183391003460208
0.3157439446366782
0.3114186851211073
0.3062283737024221
0.3027681660899654
0.2993079584775086
0.2975778546712803
0.2949826989619377
0.2897923875432526
0.28719723183391
0.2828719723183391
0.2811418685121107
0.2802768166089966
0.2768166089965398
0.2733564013840831
0.2681660899653979
0.2647058823529412
0.2612456747404844
0.2586505190311419
0.2569204152249135
0.2551903114186851
0.2517301038062284
0.2474048442906574
0.2430795847750865
0.2404844290657439
0.2387543252595156
0.2352941176470588
0.2326989619377163
0.2249134948096886
0.222318339100346
0.2171280276816609
0.2145328719723184
0.2119377162629758
0.2041522491349481
0.2006920415224913
0.1929065743944637
0.1920415224913495
0.1868512110726644
0.1816608996539792
0.1790657439446367
0.1686851211072664
0.1660899653979239
0.1591695501730104
0.157439446366782
0.157439446366782
0.1531141868512111
0.1513840830449827
0.1453287197231834
0.143598615916955
0.143598615916955
0.1427335640138408
0.1418685121107267
0.1358131487889273
0.129757785467128
0.1254325259515571
0.1228373702422145
0.120242214532872
0.115916955017301
0.1098615916955017
0.1046712802768166
0.1038062283737024
0.1029411764705882
0.1003460207612457
0.09688581314878893
0.09429065743944637
0.09342560553633218
0.09515570934256055
0.092560553633218
0.08650519031141868
0.08131487889273356
0.07525951557093426
0.07352941176470588
0.07093425605536333
0.06747404844290658
0.06228373702422145
0.05882352941176471
0.05622837370242215
0.05536332179930796
0.05449826989619377
0.05363321799307959
0.05363321799307959
0.05276816608996539
0.05536332179930796
0.05622837370242215
0.05709342560553633
0.05795847750865052
0.05536332179930796
0.05536332179930796
0.05709342560553633
0.05536332179930796
0.05622837370242215
0.05449826989619377
0.05190311418685121
0.05449826989619377
0.05536332179930796
0.05449826989619377
0.05536332179930796
0.05449826989619377
0.05622837370242215
0.05882352941176471
0.05882352941176471
0.05622837370242215
0.05709342560553633
0.05882352941176471
0.05968858131487889
0.06401384083044982
0.06055363321799308
0.05882352941176471
0.05968858131487889
0.05709342560553633
0.06228373702422145
0.06141868512110726
0.05968858131487889
0.05882352941176471
0.05449826989619377
0.05536332179930796
0.05363321799307959
0.05363321799307959
0.05536332179930796
0.05709342560553633
0.05882352941176471
0.05882352941176471
0.05622837370242215
0.05622837370242215
0.05709342560553633
0.05709342560553633
0.05968858131487889
0.05795847750865052
0.05795847750865052
0.05709342560553633
0.05795847750865052
0.05622837370242215
0.05795847750865052
0.06055363321799308
0.06141868512110726
0.06228373702422145
0.06055363321799308
0.05968858131487889
0.05968858131487889
0.06141868512110726
0.06314878892733564
0.06487889273356401
0.06401384083044982
0.06055363321799308
0.06055363321799308
0.06055363321799308
0.06055363321799308
0.06141868512110726
0.06055363321799308
0.05795847750865052
0.05536332179930796
0.05709342560553633
0.05449826989619377
0.05709342560553633
0.05795847750865052
0.05449826989619377
0.05709342560553633
0.05449826989619377
0.05536332179930796
0.05882352941176471
0.05622837370242215
0.05709342560553633
0.05622837370242215
0.05536332179930796
0.05968858131487889
0.05968858131487889
0.06141868512110726
0.06055363321799308
0.05709342560553633
0.05709342560553633
0.05709342560553633
0.05882352941176471
0.05968858131487889
0.05882352941176471
0.05882352941176471
0.05709342560553633
0.05709342560553633
0.05709342560553633
0.05709342560553633
0.06141868512110726
0.06141868512110726
0.06141868512110726
0.06055363321799308
0.05449826989619377
0.05709342560553633
0.05795847750865052
0.05882352941176471
0.06228373702422145
0.05968858131487889
0.06055363321799308
0.05968858131487889
0.05882352941176471
0.05882352941176471
0.06055363321799308
0.06314878892733564
0.06141868512110726
0.06055363321799308
0.05795847750865052
0.05536332179930796
0.05622837370242215
0.05449826989619377
0.05449826989619377
0.05622837370242215
0.05536332179930796
0.05709342560553633
0.05536332179930796
0.05363321799307959
0.05363321799307959
0.05709342560553633
0.05882352941176471
0.05882352941176471
0.05968858131487889
0.05709342560553633
0.05968858131487889
0.06055363321799308
0.06055363321799308
0.06141868512110726
0.05968858131487889
0.05882352941176471
0.05709342560553633
0.05622837370242215
0.05449826989619377
0.05449826989619377
0.05536332179930796
0.05276816608996539
0.05536332179930796
0.05536332179930796
0.05363321799307959
0.05709342560553633
0.05622837370242215
0.05795847750865052
0.05882352941176471
0.05709342560553633
0.05536332179930796
0.05536332179930796
0.05449826989619377
0.05449826989619377
0.05536332179930796
0.05449826989619377
0.05449826989619377
0.05709342560553633
0.06055363321799308
0.06228373702422145
0.06401384083044982
0.06487889273356401
0.06747404844290658
0.07093425605536333
0.07525951557093426
0.07612456747404844
0.07612456747404844
0.07698961937716263
0.07698961937716263
0.07958477508650519
0.08131487889273356
0.08217993079584775
0.08650519031141868
0.08996539792387544
0.09169550173010381
0.09342560553633218
0.09602076124567474
0.09775086505190311
0.102076124567474
0.1072664359861592
0.1081314878892734
0.1098615916955017
0.1115916955017301
0.1115916955017301
0.115916955017301
0.120242214532872
0.1237024221453287
0.1306228373702422
0.1323529411764706
0.1332179930795848
0.1375432525951557
0.1418685121107267
0.1479238754325259
0.1505190311418685
0.1505190311418685
0.1513840830449827
0.1522491349480969
0.1557093425605536
0.1583044982698962
0.157439446366782
0.1583044982698962
0.157439446366782
0.1600346020761246
0.1626297577854671
0.1643598615916955
0.1643598615916955
0.1660899653979239
0.1669550173010381
0.1695501730103806
0.1721453287197232
0.171280276816609
0.1738754325259516
0.1747404844290658
0.1764705882352941
0.1790657439446367
0.1782006920415225
0.1799307958477509
0.1816608996539792
0.185121107266436
0.1894463667820069
0.1920415224913495
0.1920415224913495
0.1929065743944637
0.1955017301038062
0.1963667820069204
0.2006920415224913
0.2041522491349481
0.2050173010380623
0.208477508650519
0.2093425605536332
0.2102076124567474
0.2119377162629758
0.2119377162629758
0.2153979238754325
0.2171280276816609
0.2179930795847751
0.2240484429065744
0.2205882352941176
0.222318339100346
0.2214532871972318
0.2179930795847751
0.2249134948096886
0.2249134948096886
0.2257785467128028
0.2240484429065744
0.2188581314878893
0.2179930795847751
0.2179930795847751
0.2205882352941176
0.2188581314878893
0.2205882352941176
0.2197231833910035
0.2197231833910035
0.222318339100346
0.2205882352941176
0.2205882352941176
0.2197231833910035
0.2205882352941176
0.2214532871972318
0.2214532871972318
0.2197231833910035
0.2171280276816609
0.2179930795847751
0.2171280276816609
0.2188581314878893
0.2153979238754325
0.2162629757785467
0.2153979238754325
0.2136678200692042
0.2119377162629758
0.2076124567474048
0.208477508650519
0.2076124567474048
0.2093425605536332
0.2058823529411765
0.2032871972318339
0.2006920415224913
0.1998269896193772
0.2006920415224913
0.1972318339100346
0.1929065743944637
0.1885813148788927
0.1859861591695502
0.185121107266436
0.1842560553633218
0.1833910034602076
0.1816608996539792
0.1790657439446367
0.1790657439446367
0.1790657439446367
0.1782006920415225
0.1790657439446367
0.1756055363321799
0.1738754325259516
0.1738754325259516
0.1695501730103806
0.1686851211072664
0.1652249134948097
0.1617647058823529
0.1617647058823529
0.1591695501730104
0.1565743944636678
0.1531141868512111
0.1505190311418685
0.1505190311418685
0.1505190311418685
0.1487889273356401
0.1444636678200692
0.1401384083044983
0.1375432525951557
0.1358131487889273
0.134083044982699
0.1306228373702422
0.1245674740484429
0.120242214532872
0.1150519031141869
0.1124567474048443
0.1107266435986159
0.1089965397923875
0.1089965397923875
0.1038062283737024
0.1038062283737024
0.09775086505190311
0.09775086505190311
0.09515570934256055
0.09083044982698962
0.092560553633218
0.08650519031141868
0.08650519031141868
0.08217993079584775
0.07698961937716263
0.07698961937716263
0.0726643598615917
0.0726643598615917
0.06920415224913495
0.06660899653979238
0.06574394463667819
0.06401384083044982
0.06401384083044982
0.06141868512110726
0.05795847750865052
0.05795847750865052
0.05795847750865052
0.05795847750865052
0.05709342560553633
0.05449826989619377
0.05363321799307959
0.05276816608996539
0.05190311418685121
0.05103806228373702
0.04930795847750865
0.05190311418685121
0.05276816608996539
0.05363321799307959
0.05190311418685121
0.05190311418685121
0.05276816608996539
0.05536332179930796
0.05882352941176471
0.05709342560553633
0.05795847750865052
0.05622837370242215
0.05795847750865052
0.05882352941176471
0.06055363321799308
0.06228373702422145
0.05968858131487889
0.05882352941176471
0.05536332179930796
0.05536332179930796
0.05882352941176471
0.05709342560553633
0.05882352941176471
0.05795847750865052
0.05622837370242215
0.05795847750865052
0.05536332179930796
0.05622837370242215
0.05882352941176471
0.06141868512110726
0.06141868512110726
0.05968858131487889
0.05709342560553633
0.05709342560553633
0.05795847750865052
0.05795847750865052
0.05709342560553633
0.05795847750865052
0.05882352941176471
0.05968858131487889
0.06141868512110726
0.05882352941176471
0.06055363321799308
0.06228373702422145
0.06401384083044982
0.06487889273356401
0.06141868512110726
0.05968858131487889
0.05968858131487889
0.06055363321799308
0.06055363321799308
0.05968858131487889
0.05968858131487889
0.05968858131487889
0.06055363321799308
0.06055363321799308
0.06055363321799308
0.06055363321799308
0.05968858131487889
0.05968858131487889
0.05709342560553633
0.05622837370242215
0.05622837370242215
0.05536332179930796
0.05536332179930796
0.05536332179930796
0.05449826989619377
0.05536332179930796
0.05536332179930796
0.05363321799307959
0.05622837370242215
0.05622837370242215
0.05882352941176471
0.05968858131487889
0.05536332179930796
0.05622837370242215
0.05709342560553633
0.05795847750865052
0.05968858131487889
0.05709342560553633
0.05622837370242215
0.05536332179930796
0.05622837370242215
0.05622837370242215
0.05536332179930796
0.05449826989619377
0.05276816608996539
0.05276816608996539
0.05363321799307959
0.05363321799307959
0.05449826989619377
0.05536332179930796
0.05363321799307959
0.05449826989619377
0.05622837370242215
0.05795847750865052
0.05968858131487889
0.05882352941176471
0.05709342560553633
0.05709342560553633
0.05449826989619377
0.05363321799307959
0.05363321799307959
0.05103806228373702
0.05536332179930796
0.05449826989619377
0.05622837370242215
0.05795847750865052
0.05709342560553633
0.06141868512110726
0.05968858131487889
0.06574394463667819
0.06487889273356401
0.06314878892733564
0.06401384083044982
0.05709342560553633
0.06314878892733564
0.06228373702422145
0.05882352941176471
0.05795847750865052
0.05017301038062284
0.05449826989619377
0.05536332179930796
0.05363321799307959
0.05449826989619377
0.05017301038062284
0.05190311418685121
0.05276816608996539
0.05190311418685121
0.05017301038062284
0.05017301038062284
0.0458477508650519
0.04238754325259515
0.04238754325259515
0.03460207612456748
0.0328719723183391
0.02768166089965398
0.02162629757785467
0.0198961937716263
0.01557093425605536
0.01124567474048443
0.008650519031141869
0.006055363321799308
0.003460207612456748
0.00259515570934256
-0.001730103806228374
-0.0008650519031141869
-0.003460207612456748
-0.005190311418685121
-0.008650519031141869
-0.01124567474048443
-0.01384083044982699
-0.01643598615916955
-0.02076124567474048
-0.02681660899653979
-0.03460207612456748
-0.03892733564013841
-0.04325259515570934
-0.04498269896193772
-0.04844290657439446
-0.05363321799307959
-0.05276816608996539
-0.05017301038062284
-0.04498269896193772
-0.03892733564013841
-0.0328719723183391
-0.02249134948096886
-0.007785467128027681
0.004325259515570935
0.01816608996539792
0.03460207612456748
0.05017301038062284
0.07179930795847751
0.09169550173010381
0.106401384083045
0.1306228373702422
0.1513840830449827
0.1721453287197232
0.1955017301038062
0.2119377162629758
0.236159169550173
0.2586505190311419
0.2768166089965398
0.2958477508650519
0.3122837370242215
0.3339100346020761
0.356401384083045
0.3737024221453287
0.3961937716262976
0.4134948096885813
0.4368512110726643
0.4593425605536332
0.4757785467128028
0.5008650519031141
0.5224913494809689
0.5475778546712803
0.5683391003460208
0.5847750865051903
0.6081314878892734
0.6288927335640139
0.653114186851211
0.6721453287197232
0.6877162629757786
0.7119377162629758
0.7318339100346021
0.7560553633217993
0.773356401384083
0.7915224913494809
0.8122837370242214
0.833044982698962
0.8538062283737025
0.8711072664359861
0.893598615916955
0.9117647058823529
0.9333910034602076
0.9480968858131488
0.9610726643598616
0.9757785467128027
0.9852941176470589
0.9956747404844291
0.9965397923875432
0.9930795847750865
0.986159169550173
0.976643598615917
0.9697231833910035
0.9550173010380623
0.9403114186851211
0.921280276816609
0.9005190311418685
0.8858131487889274
0.8685121107266436
0.8503460207612457
0.833044982698962
0.8140138408304498
0.7949826989619377
0.777681660899654
0.7543252595155709
0.7335640138408305
0.717128027681661
0.6963667820069204
0.6790657439446367
0.653114186851211
0.6262975778546713
0.6046712802768166
0.5839100346020761
0.5657439446366782
0.5441176470588235
0.5250865051903114
0.5008650519031141
0.4801038062283737
0.4576124567474049
0.4342560553633218
0.4204152249134948
0.3979238754325259
0.3780276816608997
0.3529411764705883
0.3295847750865052
0.3131487889273357
0.291522491349481
0.2716262975778547
0.2491349480968858
0.2301038062283737
0.2145328719723184
0.1946366782006921
0.1730103806228374
0.1513840830449827
0.1332179930795848
0.1167820069204152
0.09948096885813149
0.07698961937716263
0.05622837370242215
0.04065743944636678
0.02768166089965398
0.01557093425605536
0.001730103806228374
-0.0129757785467128
-0.02249134948096886
-0.02941176470588235
-0.03373702422145329
-0.03546712802768166
-0.03979238754325259
-0.03892733564013841
-0.03979238754325259
-0.03719723183391004
-0.03373702422145329
-0.03114186851211072
-0.0259515570934256
-0.02335640138408305
-0.01903114186851211
-0.01730103806228374
-0.01557093425605536
-0.01124567474048443
-0.01124567474048443
-0.006920415224913495
-0.007785467128027681
-0.007785467128027681
-0.006055363321799308
-0.004325259515570935
0.0008650519031141869
0.003460207612456748
0.006920415224913495
0.007785467128027681
0.01124567474048443
0.01643598615916955
0.02162629757785467
0.02681660899653979
0.03027681660899654
0.03460207612456748
0.03633217993079585
0.03892733564013841
0.04152249134948097
0.04411764705882353
0.0458477508650519
0.04844290657439446
0.04757785467128028
0.04930795847750865
0.04930795847750865
0.05017301038062284
0.05363321799307959
0.05449826989619377
0.05449826989619377
0.05363321799307959
0.05622837370242215
0.05968858131487889
0.06228373702422145
0.06141868512110726
0.05795847750865052
0.05622837370242215
0.05622837370242215
0.05882352941176471
0.05882352941176471
0.05795847750865052
0.05709342560553633
0.05536332179930796
0.05709342560553633
0.05622837370242215
0.05709342560553633
0.05795847750865052
0.05622837370242215
0.05622837370242215
0.05449826989619377
0.05536332179930796
0.05449826989619377
0.05622837370242215
0.05363321799307959
0.05622837370242215
0.05709342560553633
0.05709342560553633
0.05968858131487889
0.05536332179930796
0.05795847750865052
0.05882352941176471
0.05968858131487889
0.06228373702422145
0.05882352941176471
0.05709342560553633
0.05709342560553633
0.05795847750865052
0.06055363321799308
0.06055363321799308
0.05795847750865052
0.05622837370242215
0.05536332179930796
0.05622837370242215
0.05795847750865052
0.05709342560553633
0.05622837370242215
0.05622837370242215
0.05536332179930796
0.05795847750865052
0.05882352941176471
0.05882352941176471
0.05795847750865052
0.05622837370242215
0.05622837370242215
0.05882352941176471
0.05968858131487889
0.05795847750865052
0.05709342560553633
0.05449826989619377
0.05709342560553633
0.05795847750865052
0.05795847750865052
0.05795847750865052
0.05968858131487889
0.06228373702422145
0.06401384083044982
0.06314878892733564
0.05795847750865052
0.05968858131487889
0.05968858131487889
0.06141868512110726
0.06055363321799308
0.05622837370242215
0.05536332179930796
0.05449826989619377
0.05276816608996539
0.05363321799307959
0.05449826989619377
0.05536332179930796
0.05622837370242215
0.05622837370242215
0.05709342560553633
0.05795847750865052
0.05882352941176471
0.05968858131487889
0.05276816608996539
0.05536332179930796
0.05449826989619377
0.05363321799307959
0.06141868512110726
0.05276816608996539
0.05536332179930796
0.05622837370242215
0.05449826989619377
0.05968858131487889
0.05709342560553633
0.05795847750865052
0.05968858131487889
0.05968858131487889
0.05795847750865052
0.05622837370242215
0.05622837370242215
0.05449826989619377
0.05622837370242215
0.05536332179930796
0.05709342560553633
0.05795847750865052
0.05795847750865052
0.05968858131487889
0.05795847750865052
0.05968858131487889
0.06055363321799308
0.06574394463667819
0.06747404844290658
0.06920415224913495
0.06833910034602077
0.07006920415224914
0.0726643598615917
0.07698961937716263
0.08217993079584775
0.08131487889273356
0.08217993079584775
0.08217993079584775
0.08477508650519031
0.08996539792387544
0.09169550173010381
0.09688581314878893
0.09775086505190311
0.1003460207612457
0.102076124567474
0.102076124567474
0.1055363321799308
0.106401384083045
0.1098615916955017
0.1115916955017301
0.1124567474048443
0.1150519031141869
0.1141868512110727
0.1167820069204152
0.120242214532872
0.1254325259515571
0.1349480968858132
0.1384083044982699
0.1384083044982699
0.1410034602076125
0.1427335640138408
0.1487889273356401
0.1557093425605536
0.157439446366782
0.1591695501730104
0.1608996539792387
0.1634948096885813
0.1652249134948097
0.1695501730103806
0.1730103806228374
0.1764705882352941
0.1799307958477509
0.180795847750865
0.1825259515570934
0.1859861591695502
0.1903114186851211
0.1903114186851211
0.1937716262975779
0.1955017301038062
0.1980968858131488
0.2032871972318339
0.2032871972318339
0.2076124567474048
0.2093425605536332
0.2119377162629758
0.2171280276816609
0.2197231833910035
0.2257785467128028
0.226643598615917
0.2292387543252595
0.2326989619377163
0.2352941176470588
0.2422145328719723
0.2465397923875433
0.2491349480968858
0.2517301038062284
0.2508650519031142
0.2543252595155709
0.259515570934256
0.2612456747404844
0.2681660899653979
0.2681660899653979
0.2690311418685121
0.2698961937716263
0.2707612456747405
0.2759515570934256
0.277681660899654
0.2794117647058824
0.2794117647058824
0.2820069204152249
0.2854671280276816
0.2889273356401384
0.2923875432525951
0.2932525951557093
0.2984429065743945
0.3019031141868512
0.3088235294117647
0.3114186851211073
0.3122837370242215
0.3166089965397924
0.3166089965397924
0.3209342560553633
0.3209342560553633
0.32439446366782
0.328719723183391
0.3304498269896194
0.3365051903114187
0.3382352941176471
0.342560553633218
0.3451557093425606
0.3477508650519031
0.3529411764705883
0.356401384083045
0.3607266435986159
0.3598615916955017
0.3615916955017301
0.3633217993079585
0.3650519031141868
0.3693771626297578
0.3676470588235294
0.3693771626297578
0.3728373702422145
0.3728373702422145
0.3754325259515571
0.3754325259515571
0.3762975778546713
0.3788927335640138
0.3788927335640138
0.379757785467128
0.379757785467128
0.3823529411764706
0.384083044982699
0.3832179930795848
0.384083044982699
0.3849480968858132
0.3892733564013841
0.3927335640138409
0.3918685121107267
0.393598615916955
0.3953287197231834
0.3996539792387543
0.4022491349480969
0.4031141868512111
0.4048442906574394
0.407439446366782
0.4134948096885813
0.4160899653979239
0.4160899653979239
0.4152249134948097
0.4160899653979239
0.421280276816609
0.4238754325259516
0.4247404844290658
0.4221453287197232
0.4195501730103806
0.4238754325259516
0.42560553633218
0.4282006920415225
0.4282006920415225
0.4273356401384083
0.4282006920415225
0.430795847750865
0.4316608996539792
0.4316608996539792
0.4342560553633218
0.435121107266436
0.4385813148788927
0.4385813148788927
0.4377162629757785
0.4394463667820069
0.4420415224913495
0.444636678200692
0.4472318339100346
0.4463667820069204
0.4463667820069204
0.4472318339100346
0.4480968858131488
0.4498269896193772
0.4498269896193772
0.4506920415224914
0.448961937716263
0.4506920415224914
0.4524221453287197
0.4515570934256055
0.4558823529411765
0.4541522491349481
0.4558823529411765
0.4576124567474049
0.4567474048442907
0.458477508650519
0.4576124567474049
0.4602076124567474
0.46280276816609
0.4636678200692042
0.46280276816609
0.4636678200692042
0.4636678200692042
0.4662629757785467
0.4679930795847751
0.4662629757785467
0.4671280276816609
0.4645328719723184
0.4653979238754326
0.4653979238754326
0.46280276816609
0.4636678200692042
0.4619377162629758
0.4636678200692042
0.4619377162629758
0.4619377162629758
0.4602076124567474
0.4576124567474049
0.4619377162629758
0.46280276816609
0.4645328719723184
0.4645328719723184
0.4619377162629758
0.4619377162629758
0.4610726643598616
0.4593425605536332
0.4593425605536332
0.458477508650519
0.4567474048442907
0.4567474048442907
0.4541522491349481
0.448961937716263
0.4472318339100346
0.4463667820069204
0.4463667820069204
0.448961937716263
0.4437716262975779
0.4394463667820069
0.4377162629757785
0.4333910034602076
0.4359861591695502
0.435121107266436
0.4299307958477508
0.4316608996539792
0.4282006920415225
0.4264705882352941
0.4264705882352941
0.4221453287197232
0.4204152249134948
0.4186851211072664
0.4178200692041523
0.4152249134948097
0.4152249134948097
0.4117647058823529
0.4100346020761246
0.4108996539792388
0.4091695501730104
0.4100346020761246
0.4108996539792388
0.4100346020761246
0.4083044982698962
0.4083044982698962
0.4031141868512111
0.3996539792387543
0.3987889273356401
0.3961937716262976
0.3970588235294117
0.393598615916955
0.3901384083044983
0.3858131487889274
0.3823529411764706
0.3814878892733564
0.3780276816608997
0.3771626297577855
0.3737024221453287
0.3693771626297578
0.3667820069204152
0.3607266435986159
0.3581314878892733
0.3572664359861591
0.356401384083045
0.3572664359861591
0.3555363321799308
0.3529411764705883
0.3512110726643599
0.3468858131487889
0.3460207612456747
0.3442906574394464
0.342560553633218
0.3399653979238754
0.3365051903114187
0.3347750865051903
0.3295847750865052
0.3295847750865052
0.32439446366782
0.3200692041522492
0.319204152249135
0.3166089965397924
0.3166089965397924
0.3122837370242215
0.3070934256055363
0.3027681660899654
0.2993079584775086
0.2949826989619377
0.2889273356401384
0.2846020761245674
0.2802768166089966
0.277681660899654
0.2724913494809689
0.2647058823529412
0.259515570934256
0.2551903114186851
0.2560553633217993
0.2534602076124567
0.2534602076124567
0.2508650519031142
0.2482698961937716
0.2491349480968858
0.2439446366782007
0.2430795847750865
0.2404844290657439
0.2378892733564014
0.2352941176470588
0.2318339100346021
0.226643598615917
0.2231833910034602
0.2188581314878893
0.2119377162629758
0.2093425605536332
0.2058823529411765
0.2024221453287197
0.1963667820069204
0.1877162629757785
0.1825259515570934
0.1773356401384083
0.1747404844290658
0.1695501730103806
0.1643598615916955
0.1608996539792387
0.1548442906574395
0.1531141868512111
0.1496539792387543
0.1505190311418685
0.1505190311418685
0.1470588235294118
0.1427335640138408
0.1392733564013841
0.1384083044982699
0.1375432525951557
0.1349480968858132
0.1288927335640138
0.1228373702422145
0.1185121107266436
0.115916955017301
0.1133217993079585
0.1107266435986159
0.1089965397923875
0.106401384083045
0.1029411764705882
0.102076124567474
0.1003460207612457
0.1003460207612457
0.1012110726643599
0.09688581314878893
0.09429065743944637
0.09169550173010381
0.08823529411764706
0.08823529411764706
0.08564013840830449
0.08217993079584775
0.07785467128027682
0.07352941176470588
0.07093425605536333
0.06574394463667819
0.06487889273356401
0.06228373702422145
0.06055363321799308
0.05968858131487889
0.05536332179930796
0.05449826989619377
0.05449826989619377
0.05536332179930796
0.05709342560553633
0.05536332179930796
0.05449826989619377
0.05449826989619377
0.05363321799307959
0.05622837370242215
0.05536332179930796
0.05795847750865052
0.06055363321799308
0.05968858131487889
0.06141868512110726
0.05968858131487889
0.06055363321799308
0.06141868512110726
0.05882352941176471
0.05795847750865052
0.05622837370242215
0.05622837370242215
0.05536332179930796
0.05276816608996539
0.05276816608996539
0.05363321799307959
0.05622837370242215
0.05795847750865052
0.05622837370242215
0.05795847750865052
0.05968858131487889
0.06141868512110726
0.06401384083044982
0.06228373702422145
0.06141868512110726
0.06055363321799308
0.06228373702422145
0.06055363321799308
0.06055363321799308
0.05968858131487889
0.05709342560553633
0.05968858131487889
0.05795847750865052
0.05968858131487889
0.06141868512110726
0.05882352941176471
0.06055363321799308
0.05882352941176471
0.05795847750865052
0.05882352941176471
0.05795847750865052
0.05882352941176471
0.05622837370242215
0.05622837370242215
0.05449826989619377
0.05536332179930796
0.05795847750865052
0.05449826989619377
0.05795847750865052
0.05795847750865052
0.05709342560553633
0.05882352941176471
0.05536332179930796
0.05709342560553633
0.05709342560553633
0.05882352941176471
0.05709342560553633
0.05795847750865052
0.06055363321799308
0.05968858131487889
0.06228373702422145
0.06055363321799308
0.06141868512110726
0.06314878892733564
0.06401384083044982
0.06314878892733564
0.06314878892733564
0.06228373702422145
0.06314878892733564
0.06401384083044982
0.06141868512110726
0.06141868512110726
0.06141868512110726
0.05968858131487889
0.05882352941176471
0.05622837370242215
0.05709342560553633
0.05882352941176471
0.05795847750865052
0.05795847750865052
0.05536332179930796
0.05536332179930796
0.05882352941176471
0.06055363321799308
0.06141868512110726
0.06141868512110726
0.05449826989619377
0.05536332179930796
0.05363321799307959
0.05276816608996539
0.06055363321799308
0.05190311418685121
0.05536332179930796
0.05276816608996539
0.05103806228373702
0.05882352941176471
0.05536332179930796
0.05795847750865052
0.05795847750865052
0.05709342560553633
0.05882352941176471
0.05795847750865052
0.05622837370242215
0.05622837370242215
0.05622837370242215
0.05795847750865052
0.05795847750865052
0.05795847750865052
0.05795847750865052
0.05709342560553633
0.05882352941176471
0.05536332179930796
0.05622837370242215
0.05622837370242215
0.05449826989619377
0.05536332179930796
0.05276816608996539
0.05276816608996539
0.05103806228373702
0.05103806228373702
0.05190311418685121
0.05190311418685121
0.05363321799307959
0.05363321799307959
0.05363321799307959
0.05536332179930796
0.05449826989619377
0.05363321799307959
0.05622837370242215
0.05449826989619377
0.05622837370242215
0.05709342560553633
0.05449826989619377
0.05622837370242215
0.05536332179930796
0.05536332179930796
0.05536332179930796
0.05622837370242215
0.05536332179930796
0.05795847750865052
0.05968858131487889
0.05882352941176471
0.06055363321799308
0.05795847750865052
0.06055363321799308
0.06141868512110726
0.06055363321799308
0.06228373702422145
0.05882352941176471
0.06055363321799308
0.05968858131487889
0.05795847750865052
0.06141868512110726
0.06141868512110726
0.06314878892733564
0.06487889273356401
0.06574394463667819
0.06920415224913495
0.07352941176470588
0.07698961937716263
0.078719723183391
0.078719723183391
0.07958477508650519
0.08391003460207612
0.08823529411764706
0.08996539792387544
0.09169550173010381
0.09169550173010381
0.09602076124567474
0.09948096885813149
0.1038062283737024
0.1081314878892734
0.1089965397923875
0.1141868512110727
0.1150519031141869
0.1185121107266436
0.1211072664359862
0.1219723183391003
0.1262975778546713
0.1271626297577855
0.1306228373702422
0.1314878892733564
0.1314878892733564
0.1349480968858132
0.1384083044982699
0.143598615916955
0.1461937716262976
0.1461937716262976
0.1453287197231834
0.1479238754325259
0.1522491349480969
0.1548442906574395
0.157439446366782
0.1565743944636678
0.1583044982698962
0.1634948096885813
0.1660899653979239
0.1678200692041522
0.1686851211072664
0.1695501730103806
0.1721453287197232
0.1730103806228374
0.1730103806228374
0.1738754325259516
0.1756055363321799
0.1756055363321799
0.1773356401384083
0.1782006920415225
0.1799307958477509
0.1842560553633218
0.1859861591695502
0.1877162629757785
0.1877162629757785
0.1903114186851211
0.1920415224913495
0.1937716262975779
0.1963667820069204
0.1972318339100346
0.2024221453287197
0.2032871972318339
0.2050173010380623
0.2076124567474048
0.2093425605536332
0.2136678200692042
0.21280276816609
0.2136678200692042
0.2119377162629758
0.2153979238754325
0.2188581314878893
0.2188581314878893
0.2188581314878893
0.2171280276816609
0.2197231833910035
0.2197231833910035
0.2214532871972318
0.2205882352941176
0.2214532871972318
0.2240484429065744
0.222318339100346
0.2231833910034602
0.2214532871972318
0.2197231833910035
0.2231833910034602
0.2205882352941176
0.2214532871972318
0.2257785467128028
0.2249134948096886
0.2257785467128028
0.2231833910034602
0.2188581314878893
0.222318339100346
0.222318339100346
0.2240484429065744
0.222318339100346
0.2162629757785467
0.2162629757785467
0.2136678200692042
0.2145328719723184
0.2153979238754325
0.21280276816609
0.2102076124567474
0.208477508650519
0.2067474048442907
0.2067474048442907
0.2067474048442907
0.2032871972318339
0.198961937716263
0.2006920415224913
0.1955017301038062
0.1955017301038062
0.1929065743944637
0.1877162629757785
0.1903114186851211
0.1877162629757785
0.1859861591695502
0.1816608996539792
0.180795847750865
0.1773356401384083
0.180795847750865
0.1790657439446367
0.1747404844290658
0.1738754325259516
0.1678200692041522
0.1721453287197232
0.1704152249134948
0.1695501730103806
0.1695501730103806
0.1652249134948097
0.1652249134948097
0.1643598615916955
0.1643598615916955
0.1634948096885813
0.1626297577854671
0.1617647058823529
0.157439446366782
0.1557093425605536
0.1513840830449827
0.1505190311418685
0.1496539792387543
0.1453287197231834
0.1418685121107267
0.1384083044982699
0.1358131487889273
0.1366782006920415
0.1323529411764706
0.1280276816608996
0.1245674740484429
0.120242214532872
0.1219723183391003
0.1193771626297578
0.1150519031141869
0.1107266435986159
0.1046712802768166
0.1012110726643599
0.1003460207612457
0.09688581314878893
0.09342560553633218
0.08823529411764706
0.08304498269896193
0.08217993079584775
0.07958477508650519
0.07785467128027682
0.07439446366782007
0.07006920415224914
0.06920415224913495
0.06660899653979238
0.06487889273356401
0.06141868512110726
0.05968858131487889
0.05882352941176471
0.05622837370242215
0.05622837370242215
0.05363321799307959
0.05363321799307959
0.05536332179930796
0.05449826989619377
0.05622837370242215
0.05536332179930796
0.05709342560553633
0.05968858131487889
0.05968858131487889
0.06141868512110726
0.05882352941176471
0.05882352941176471
0.05968858131487889
0.05882352941176471
0.05968858131487889
0.05709342560553633
0.05276816608996539
0.05363321799307959
0.05190311418685121
0.05536332179930796
0.05709342560553633
0.05622837370242215
0.05795847750865052
0.05449826989619377
0.05622837370242215
0.05795847750865052
0.05882352941176471
0.05968858131487889
0.05709342560553633
0.05536332179930796
0.05536332179930796
0.05622837370242215
0.05536332179930796
0.05622837370242215
0.05449826989619377
0.05536332179930796
0.05882352941176471
0.05536332179930796
0.05622837370242215
0.05363321799307959
0.05190311418685121
0.05622837370242215
0.05449826989619377
0.05795847750865052
0.05795847750865052
0.05709342560553633
0.05882352941176471
0.05622837370242215
0.05795847750865052
0.05968858131487889
0.06314878892733564
0.06487889273356401
0.06314878892733564
0.05968858131487889
0.05795847750865052
0.05795847750865052
0.05795847750865052
0.05882352941176471
0.05622837370242215
0.05449826989619377
0.05190311418685121
0.05276816608996539
0.05363321799307959
0.05363321799307959
0.05622837370242215
0.05363321799307959
0.05622837370242215
0.05449826989619377
0.05536332179930796
0.05622837370242215
0.05622837370242215
0.05622837370242215
0.05536332179930796
0.05709342560553633
0.05536332179930796
0.05882352941176471
0.05795847750865052
0.05882352941176471
0.06055363321799308
0.05882352941176471
0.05968858131487889
0.05882352941176471
0.06055363321799308
0.05968858131487889
0.06141868512110726
0.05795847750865052
0.05709342560553633
0.05709342560553633
0.05622837370242215
0.05968858131487889
0.05968858131487889
0.06141868512110726
0.06055363321799308
0.05968858131487889
0.06228373702422145
0.06314878892733564
0.06660899653979238
0.06574394463667819
0.06487889273356401
0.06314878892733564
0.06141868512110726
0.06228373702422145
0.06055363321799308
0.05882352941176471
0.05882352941176471
0.05622837370242215
0.05622837370242215
0.05795847750865052
0.05709342560553633
0.05709342560553633
0.05795847750865052
0.05449826989619377
0.05795847750865052
0.05882352941176471
0.05622837370242215
0.05882352941176471
0.05709342560553633
0.05882352941176471
0.05968858131487889
0.05709342560553633
0.05795847750865052
0.05968858131487889
0.06141868512110726
0.06314878892733564
0.05968858131487889
0.05882352941176471
0.05709342560553633
0.05190311418685121
0.05622837370242215
0.05363321799307959
0.05363321799307959
0.05709342560553633
0.04844290657439446
0.05276816608996539
0.05363321799307959
0.05536332179930796
0.05882352941176471
0.05536332179930796
0.05103806228373702
0.04930795847750865
0.04844290657439446
0.04411764705882353
0.04325259515570934
0.03806228373702422
0.03546712802768166
0.03114186851211072
0.02768166089965398
0.0259515570934256
0.02162629757785467
0.0198961937716263
0.01643598615916955
0.0129757785467128
0.009515570934256055
0.006920415224913495
0.001730103806228374
-0.001730103806228374
-0.005190311418685121
-0.006920415224913495
-0.007785467128027681
-0.01038062283737024
-0.01470588235294118
-0.01903114186851211
-0.02162629757785467
-0.02681660899653979
-0.02768166089965398
-0.03200692041522491
-0.03719723183391004
-0.03719723183391004
-0.04411764705882353
-0.0458477508650519
-0.04671280276816609
-0.04930795847750865
-0.04498269896193772
-0.04238754325259515
-0.03719723183391004
-0.03027681660899654
-0.02335640138408305
-0.01211072664359862
0.01211072664359862
0.02854671280276817
0.04498269896193772
0.06141868512110726
0.08131487889273356
0.09515570934256055
0.115916955017301
0.1392733564013841
0.157439446366782
0.1833910034602076
0.2015570934256055
0.2214532871972318
0.2456747404844291
0.263840830449827
0.2828719723183391
0.3036332179930796
0.3252595155709342
0.3486159169550173
0.3693771626297578
0.3849480968858132
0.4057093425605536
0.4273356401384083
0.4506920415224914
0.4740484429065744
0.4930795847750865
0.5173010380622838
0.5363321799307958
0.5596885813148789
0.5769896193771626
0.5994809688581315
0.6228373702422145
0.6427335640138409
0.6643598615916955
0.6825259515570934
0.7032871972318339
0.7283737024221453
0.7482698961937716
0.7655709342560554
0.7854671280276817
0.8027681660899654
0.8278546712802768
0.8460207612456747
0.8633217993079585
0.8832179930795848
0.9013840830449827
0.9238754325259516
0.9411764705882353
0.9576124567474048
0.9688581314878892
0.9783737024221453
0.9887543252595156
0.9922145328719724
0.9956747404844291
0.9896193771626297
0.9809688581314879
0.9705882352941176
0.9550173010380623
0.9446366782006921
0.9282006920415224
0.9117647058823529
0.893598615916955
0.8737024221453287
0.8572664359861591
0.8356401384083045
0.8166089965397924
0.7975778546712803
0.7759515570934256
0.7569204152249135
0.7344290657439446
0.7136678200692042
0.6937716262975778
0.6730103806228374
0.6513840830449827
0.6306228373702422
0.6167820069204152
0.5960207612456747
0.5761245674740484
0.5536332179930796
0.527681660899654
0.5155709342560554
0.4956747404844291
0.4740484429065744
0.4498269896193772
0.421280276816609
0.4022491349480969
0.3806228373702422
0.3598615916955017
0.3373702422145329
0.3140138408304498
0.2975778546712803
0.2768166089965398
0.259515570934256
0.2430795847750865
0.2231833910034602
0.2050173010380623
0.1842560553633218
0.1617647058823529
0.143598615916955
0.1262975778546713
0.1029411764705882
0.08131487889273356
0.05795847750865052
0.03892733564013841
0.0259515570934256
0.01211072664359862
-0.01124567474048443
-0.02162629757785467
-0.02768166089965398
-0.03200692041522491
-0.0328719723183391
-0.03546712802768166
-0.03633217993079585
-0.03806228373702422
-0.03719723183391004
-0.03460207612456748
-0.03373702422145329
-0.03200692041522491
-0.02941176470588235
-0.02508650519031142
-0.02076124567474048
-0.01643598615916955
-0.01470588235294118
-0.01384083044982699
-0.01038062283737024
-0.007785467128027681
-0.004325259515570935
-0.0008650519031141869
0.0008650519031141869
0.001730103806228374
0.003460207612456748
0.003460207612456748
0.006055363321799308
0.01124567474048443
0.01557093425605536
0.01903114186851211
0.02076124567474048
0.02335640138408305
0.0259515570934256
0.0328719723183391
0.03892733564013841
0.04152249134948097
0.04671280276816609
0.04498269896193772
0.05017301038062284
0.05363321799307959
0.05363321799307959
0.05882352941176471
0.05795847750865052
0.05968858131487889
0.06055363321799308
0.05795847750865052
0.05968858131487889
0.05968858131487889
0.06055363321799308
0.06141868512110726
0.05968858131487889
0.05882352941176471
0.05882352941176471
0.06141868512110726
0.05968858131487889
0.05795847750865052
0.05622837370242215
0.05449826989619377
0.05709342560553633
0.05709342560553633
0.05622837370242215
0.05449826989619377
0.05276816608996539
0.05103806228373702
0.05276816608996539
0.05190311418685121
0.05449826989619377
0.05536332179930796
0.05536332179930796
0.05709342560553633
0.05449826989619377
0.05363321799307959
0.05363321799307959
0.05622837370242215
0.05968858131487889
0.06055363321799308
0.05968858131487889
0.05622837370242215
0.05622837370242215
0.05882352941176471
0.05968858131487889
0.06228373702422145
0.06055363321799308
0.05968858131487889
0.05882352941176471
0.05795847750865052
0.05882352941176471
0.05882352941176471
0.06141868512110726
0.06228373702422145
0.06055363321799308
0.05968858131487889
0.05709342560553633
0.05795847750865052
0.06055363321799308
0.05882352941176471
0.05709342560553633
0.05709342560553633
0.05536332179930796
0.05622837370242215
0.05536332179930796
0.05276816608996539
0.05709342560553633
0.05795847750865052
0.05882352941176471
0.05882352941176471
0.05363321799307959
0.05363321799307959
0.05709342560553633
0.05709342560553633
0.05795847750865052
0.05449826989619377
0.05363321799307959
0.05363321799307959
0.05449826989619377
0.05449826989619377
0.05190311418685121
0.05276816608996539
0.05276816608996539
0.05622837370242215
0.05536332179930796
0.05449826989619377
0.05276816608996539
0.05017301038062284
0.05363321799307959
0.05536332179930796
0.05882352941176471
0.06055363321799308
0.05622837370242215
0.05536332179930796
0.05536332179930796
0.05622837370242215
0.06141868512110726
0.06228373702422145
0.06055363321799308
0.05882352941176471
0.05622837370242215
0.05795847750865052
0.06141868512110726
0.06314878892733564
0.06314878892733564
0.06055363321799308
0.05968858131487889
0.06228373702422145
0.06228373702422145
0.06401384083044982
0.06141868512110726
0.06055363321799308
0.06141868512110726
0.05363321799307959
0.05536332179930796
0.05276816608996539
0.05103806228373702
0.05882352941176471
0.05103806228373702
0.05190311418685121
0.05190311418685121
0.05276816608996539
0.06314878892733564
0.06401384083044982
0.06574394463667819
0.06574394463667819
0.06833910034602077
0.07352941176470588
0.07525951557093426
0.078719723183391
0.07698961937716263
0.07785467128027682
0.08044982698961937
0.08044982698961937
0.08477508650519031
0.08650519031141868
0.08910034602076125
0.09169550173010381
0.09342560553633218
0.09515570934256055
0.09775086505190311
0.1012110726643599
0.1038062283737024
0.1072664359861592
0.1089965397923875
0.1124567474048443
0.115916955017301
0.1167820069204152
0.1185121107266436
0.1211072664359862
0.1245674740484429
0.129757785467128
0.1323529411764706
0.134083044982699
0.1366782006920415
0.1375432525951557
0.143598615916955
0.1470588235294118
0.1496539792387543
0.1548442906574395
0.1539792387543253
0.1583044982698962
0.1591695501730104
0.1608996539792387
0.1652249134948097
0.1669550173010381
0.1704152249134948
0.171280276816609
0.1764705882352941
0.1790657439446367
0.1816608996539792
0.1859861591695502
0.1885813148788927
0.1955017301038062
0.198961937716263
0.2015570934256055
0.2041522491349481
0.2076124567474048
0.2119377162629758
0.2145328719723184
0.2162629757785467
0.2171280276816609
0.222318339100346
0.2257785467128028
0.2275086505190311
0.2301038062283737
0.2309688581314879
0.236159169550173
0.2404844290657439
0.2456747404844291
0.2482698961937716
0.2508650519031142
0.2551903114186851
0.2560553633217993
0.2612456747404844
0.263840830449827
0.263840830449827
0.2690311418685121
0.2681660899653979
0.2716262975778547
0.2742214532871972
0.2750865051903114
0.2811418685121107
0.2837370242214533
0.2906574394463668
0.2932525951557093
0.2941176470588235
0.3001730103806228
0.3027681660899654
0.3105536332179931
0.314878892733564
0.3157439446366782
0.3183391003460208
0.3174740484429066
0.3209342560553633
0.32439446366782
0.3269896193771626
0.3295847750865052
0.3278546712802768
0.3313148788927336
0.3339100346020761
0.3391003460207612
0.3416955017301038
0.3434256055363322
0.3434256055363322
0.3442906574394464
0.3512110726643599
0.3512110726643599
0.3572664359861591
0.3572664359861591
0.356401384083045
0.3598615916955017
0.3581314878892733
0.3615916955017301
0.3615916955017301
0.3650519031141868
0.3676470588235294
0.3676470588235294
0.3693771626297578
0.3685121107266436
0.3728373702422145
0.3754325259515571
0.3780276816608997
0.379757785467128
0.379757785467128
0.3814878892733564
0.3849480968858132
0.3875432525951557
0.3884083044982699
0.3892733564013841
0.3918685121107267
0.393598615916955
0.3953287197231834
0.3970588235294117
0.3987889273356401
0.4022491349480969
0.4031141868512111
0.4048442906574394
0.407439446366782
0.4083044982698962
0.4134948096885813
0.4169550173010381
0.4195501730103806
0.4204152249134948
0.4195501730103806
0.4204152249134948
0.4204152249134948
0.421280276816609
0.4230103806228374
0.4221453287197232
0.4204152249134948
0.4204152249134948
0.4195501730103806
0.4230103806228374
0.4264705882352941
0.4290657439446367
0.4299307958477508
0.430795847750865
0.4316608996539792
0.4316608996539792
0.4342560553633218
0.4342560553633218
0.4342560553633218
0.4359861591695502
0.4368512110726643
0.4377162629757785
0.4385813148788927
0.4377162629757785
0.4403114186851211
0.4411764705882353
0.4437716262975779
0.4429065743944637
0.4437716262975779
0.4472318339100346
0.4472318339100346
0.4515570934256055
0.4515570934256055
0.4532871972318339
0.4558823529411765
0.4576124567474049
0.4593425605536332
0.4602076124567474
0.458477508650519
0.4602076124567474
0.4619377162629758
0.4610726643598616
0.46280276816609
0.4610726643598616
0.46280276816609
0.46280276816609
0.4645328719723184
0.4662629757785467
0.4662629757785467
0.4679930795847751
0.4636678200692042
0.4645328719723184
0.4636678200692042
0.46280276816609
0.4653979238754326
0.4653979238754326
0.4653979238754326
0.46280276816609
0.4645328719723184
0.4645328719723184
0.4662629757785467
0.4679930795847751
0.4645328719723184
0.4662629757785467
0.4662629757785467
0.4679930795847751
0.4688581314878893
0.4645328719723184
0.46280276816609
0.4619377162629758
0.4636678200692042
0.4636678200692042
0.4593425605536332
0.4550173010380623
0.4541522491349481
0.4541522491349481
0.4532871972318339
0.4541522491349481
0.4515570934256055
0.4506920415224914
0.4498269896193772
0.4455017301038062
0.4429065743944637
0.4411764705882353
0.4403114186851211
0.4377162629757785
0.4359861591695502
0.4282006920415225
0.42560553633218
0.4273356401384083
0.42560553633218
0.4290657439446367
0.4247404844290658
0.421280276816609
0.4204152249134948
0.4160899653979239
0.4169550173010381
0.4152249134948097
0.4117647058823529
0.4100346020761246
0.4065743944636678
0.4057093425605536
0.4057093425605536
0.4057093425605536
0.4065743944636678
0.4057093425605536
0.4057093425605536
0.4031141868512111
0.4022491349480969
0.4005190311418685
0.3970588235294117
0.3979238754325259
0.3918685121107267
0.3875432525951557
0.3832179930795848
0.3771626297577855
0.3788927335640138
0.3754325259515571
0.3737024221453287
0.370242214532872
0.3641868512110726
0.3641868512110726
0.3598615916955017
0.3615916955017301
0.3589965397923875
0.3572664359861591
0.3538062283737024
0.3477508650519031
0.3486159169550173
0.3468858131487889
0.3503460207612457
0.3477508650519031
0.3434256055363322
0.3408304498269896
0.3391003460207612
0.3391003460207612
0.3391003460207612
0.3347750865051903
0.3295847750865052
0.3278546712802768
0.3226643598615917
0.3235294117647059
0.3200692041522492
0.3166089965397924
0.3157439446366782
0.3096885813148789
0.3088235294117647
0.305363321799308
0.3001730103806228
0.2984429065743945
0.2941176470588235
0.2897923875432526
0.2837370242214533
0.277681660899654
0.2707612456747405
0.2690311418685121
0.2707612456747405
0.2681660899653979
0.2655709342560554
0.2612456747404844
0.2543252595155709
0.2560553633217993
0.2543252595155709
0.2517301038062284
0.25
0.2413494809688581
0.2378892733564014
0.2257785467128028
0.2249134948096886
0.2214532871972318
0.2171280276816609
0.2214532871972318
0.2050173010380623
0.2032871972318339
0.1998269896193772
0.1972318339100346
0.2006920415224913
0.1920415224913495
0.1859861591695502
0.180795847750865
0.1790657439446367
0.1756055363321799
0.1721453287197232
0.1652249134948097
0.1608996539792387
0.157439446366782
0.1531141868512111
0.1513840830449827
0.1453287197231834
0.143598615916955
0.1392733564013841
0.1358131487889273
0.1358131487889273
0.1306228373702422
0.1314878892733564
0.1280276816608996
0.1245674740484429
0.1228373702422145
0.1193771626297578
0.1185121107266436
0.1150519031141869
0.1107266435986159
0.1072664359861592
0.1029411764705882
0.102076124567474
0.1003460207612457
0.09602076124567474
0.092560553633218
0.08996539792387544
0.08823529411764706
0.08737024221453288
0.08131487889273356
0.07785467128027682
0.07525951557093426
0.07179930795847751
0.07179930795847751
0.06920415224913495
0.06660899653979238
0.06141868512110726
0.06228373702422145
0.05968858131487889
0.06228373702422145
0.06401384083044982
0.06055363321799308
0.06314878892733564
0.05882352941176471
0.06141868512110726
0.06228373702422145
0.05882352941176471
0.05882352941176471
0.05449826989619377
0.05709342560553633
0.05622837370242215
0.05449826989619377
0.05449826989619377
0.05103806228373702
0.05536332179930796
0.05622837370242215
0.05622837370242215
0.05882352941176471
0.05622837370242215
0.05882352941176471
0.05968858131487889
0.05795847750865052
0.06055363321799308
0.05709342560553633
0.05968858131487889
0.05882352941176471
0.05709342560553633
0.05795847750865052
0.05536332179930796
0.05709342560553633
0.05709342560553633
0.05709342560553633
0.05709342560553633
0.05449826989619377
0.05536332179930796
0.05449826989619377
0.05795847750865052
0.05882352941176471
0.05795847750865052
0.05882352941176471
0.05536332179930796
0.05968858131487889
0.05968858131487889
0.05882352941176471
0.06055363321799308
0.05795847750865052
0.06228373702422145
0.06141868512110726
0.06055363321799308
0.05882352941176471
0.05709342560553633
0.05968858131487889
0.05968858131487889
0.05882352941176471
0.05709342560553633
0.05449826989619377
0.05622837370242215
0.05882352941176471
0.05622837370242215
0.05709342560553633
0.05622837370242215
